timestamp_ms,ppg1,ppg2
0,3181,3204
12,3197,3211
23,3191,3227
35,3199,3224
47,3200,3215
59,3219,3234
71,3218,3220
83,3228,3208
94,3246,3219
106,3231,3210
118,3219,3198
130,3204,3182
142,3210,3199
153,3180,3194
165,3165,3178
177,3176,3199
189,3148,3179
201,3171,3199
213,3158,3187
224,3182,3205
236,3180,3215
248,3193,3206
260,3213,3223
272,3223,3225
283,3248,3217
295,3250,3235
307,3226,3224
319,3215,3211
331,3188,3208
343,3208,3236
354,3189,3218
366,3184,3213
378,3212,3213
390,3209,3230
402,3214,3221
413,3207,3212
425,3210,3233
437,3194,3226
449,3192,3213
461,3192,3212
473,3203,3217
484,3205,3228
496,3213,3225
508,3228,3237
520,3214,3226
532,3202,3205
544,3222,3237
555,3215,3219
567,3199,3217
579,3190,3209
591,3196,3224
603,3173,3211
614,3154,3207
626,3158,3188
638,3168,3190
650,3185,3185
662,3193,3191
674,3196,3185
685,3211,3193
697,3189,3182
709,3175,3186
721,3170,3200
733,3162,3186
744,3198,3213
756,3217,3237
768,3193,3213
780,3209,3229
792,3207,3248
804,3201,3240
815,3173,3219
827,3189,3222
839,3194,3209
851,3196,3210
863,3194,3187
874,3153,3138
886,3128,3119
898,3156,3146
910,3208,3198
922,3221,3220
934,3228,3232
945,3235,3243
957,3230,3260
969,3224,3264
981,3200,3261
993,3201,3274
1004,3186,3267
1016,3186,3252
1028,3192,3248
1040,3178,3248
1052,3177,3241
1064,3172,3214
1075,3186,3226
1087,3183,3211
1099,3163,3199
1111,3170,3191
1123,3145,3193
1135,3168,3200
1146,3168,3201
1158,3196,3231
1170,3210,3205
1182,3212,3213
1194,3232,3202
1206,3234,3210
1217,3234,3210
1229,3202,3189
1241,3179,3204
1253,3167,3198
1265,3153,3195
1276,3180,3218
1288,3175,3211
1300,3179,3210
1312,3172,3196
1324,3173,3197
1336,3159,3188
1347,3149,3187
1359,3181,3207
1371,3185,3197
1383,3192,3195
1395,3208,3185
1407,3211,3182
1418,3209,3175
1430,3193,3160
1442,3210,3168
1454,3185,3153
1466,3163,3143
1477,3172,3152
1489,3160,3163
1501,3157,3170
1513,3153,3161
1525,3162,3191
1537,3146,3195
1548,3145,3191
1560,3142,3198
1572,3159,3185
1584,3165,3210
1596,3178,3206
1608,3199,3228
1619,3189,3198
1631,3151,3164
1643,3185,3184
1655,3196,3189
1667,3207,3204
1679,3220,3216
1690,3229,3231
1702,3239,3217
1714,3207,3182
1726,3222,3204
1738,3215,3192
1750,3226,3201
1761,3228,3199
1773,3215,3190
1785,3228,3212
1797,3231,3210
1809,3236,3239
1820,3223,3232
1832,3212,3226
1844,3208,3232
1856,3190,3223
1868,3196,3224
1880,3173,3204
1891,3165,3235
1903,3148,3233
1915,3127,3265
1927,3149,3305
1939,3143,3326
1951,3150,3354
1962,3174,3380
1974,3182,3414
1986,3200,3468
1998,3201,3528
2010,3227,3578
2022,3233,3588
2033,3231,3588
2045,3226,3567
2057,3235,3542
2069,3231,3500
2081,3196,3419
2092,3217,3386
2104,3184,3323
2116,3184,3268
2128,3215,3214
2140,3211,3182
2152,3196,3142
2163,3193,3101
2175,3196,3100
2187,3173,3085
2199,3168,3086
2211,3171,3109
2223,3151,3137
2234,3145,3172
2246,3142,3207
2258,3167,3253
2270,3151,3277
2282,3155,3316
2294,3198,3369
2305,3203,3395
2317,3197,3408
2329,3178,3403
2341,3180,3439
2353,3175,3407
2364,3182,3405
2376,3201,3390
2388,3200,3367
2400,3191,3359
2412,3167,3302
2424,3178,3286
2435,3175,3245
2447,3185,3210
2459,3218,3219
2471,3209,3205
2483,3213,3214
2495,3203,3203
2506,3199,3220
2518,3195,3242
2530,3183,3229
2542,3186,3257
2554,3193,3243
2566,3198,3236
2577,3211,3227
2589,3206,3212
2601,3185,3189
2613,3197,3176
2625,3179,3155
2637,3159,3108
2648,3169,3102
2660,3203,3130
2672,3199,3156
2684,3211,3189
2696,3178,3191
2708,3171,3198
2719,3151,3203
2731,3139,3199
2743,3148,3211
2755,3154,3212
2767,3143,3200
2779,3169,3182
2790,3199,3208
2802,3202,3195
2814,3205,3165
2826,3242,3172
2838,3241,3146
2850,3239,3126
2861,3243,3104
2873,3231,3083
2885,3218,3065
2897,3186,3049
2909,3184,3066
2921,3165,3042
2932,3175,3035
2944,3177,2974
2956,3170,2921
2968,3168,2868
2980,3150,2811
2992,3152,2810
3003,3159,2776
3015,3175,2769
3027,3199,2796
3039,3198,2826
3051,3185,2854
3063,3174,2896
3074,3172,2960
3086,3184,2999
3098,3183,3053
3110,3205,3103
3122,3177,3118
3134,3188,3164
3145,3177,3180
3157,3170,3206
3169,3168,3212
3181,3148,3198
3193,3170,3219
3205,3157,3213
3216,3159,3218
3228,3158,3206
3240,3155,3230
3252,3144,3224
3264,3126,3198
3276,3144,3201
3287,3157,3188
3299,3179,3179
3311,3204,3164
3323,3192,3176
3335,3202,3165
3347,3182,3171
3358,3208,3197
3370,3198,3190
3382,3175,3186
3394,3184,3189
3406,3197,3200
3417,3209,3215
3429,3190,3214
3441,3204,3226
3453,3191,3220
3465,3201,3226
3477,3233,3230
3488,3224,3225
3500,3205,3226
3512,3192,3217
3524,3187,3219
3536,3175,3213
3548,3179,3198
3559,3195,3212
3571,3169,3172
3583,3164,3157
3595,3204,3185
3607,3223,3209
3619,3215,3227
3630,3171,3187
3642,3180,3190
3654,3195,3183
3666,3184,3183
3678,3202,3173
3690,3209,3193
3701,3208,3204
3713,3179,3172
3725,3197,3183
3737,3196,3183
3749,3185,3182
3761,3168,3175
3772,3188,3187
3784,3193,3187
3796,3181,3191
3808,3196,3206
3820,3203,3188
3832,3186,3184
3843,3221,3196
3855,3206,3197
3867,3204,3200
3879,3191,3195
3891,3193,3222
3903,3185,3204
3914,3177,3190
3926,3188,3190
3938,3180,3185
3950,3175,3183
3962,3182,3174
3974,3181,3178
3985,3162,3157
3997,3149,3152
4009,3172,3181
4021,3153,3170
4033,3145,3172
4045,3160,3174
4056,3165,3187
4068,3177,3173
4080,3159,3173
4092,3185,3203
4104,3154,3187
4116,3147,3194
4127,3146,3186
4139,3166,3206
4151,3178,3207
4163,3170,3194
4175,3192,3214
4187,3188,3193
4198,3181,3191
4210,3183,3205
4222,3188,3211
4234,3179,3200
4246,3155,3186
4258,3159,3213
4269,3176,3215
4281,3164,3210
4293,3176,3205
4305,3170,3195
4317,3177,3190
4328,3164,3149
4340,3184,3181
4352,3183,3189
4364,3180,3193
4376,3187,3218
4388,3193,3215
4399,3195,3229
4411,3186,3222
4423,3192,3233
4435,3170,3192
4447,3151,3192
4459,3168,3191
4470,3151,3184
4482,3170,3185
4494,3178,3190
4506,3184,3201
4518,3181,3198
4530,3166,3185
4541,3175,3211
4553,3175,3194
4565,3168,3177
4577,3218,3177
4589,3230,3190
4601,3223,3192
4612,3223,3191
4624,3247,3223
4636,3214,3179
4648,3211,3185
4660,3215,3208
4672,3201,3220
4683,3194,3205
4695,3195,3197
4707,3198,3209
4719,3176,3195
4731,3190,3210
4743,3218,3222
4754,3200,3225
4766,3181,3195
4778,3186,3214
4790,3195,3220
4802,3193,3239
4814,3164,3215
4825,3184,3219
4837,3183,3204
4849,3158,3200
4861,3153,3194
4873,3165,3198
4885,3164,3200
4896,3171,3200
4908,3193,3214
4920,3179,3217
4932,3176,3207
4944,3178,3177
4956,3193,3199
4967,3204,3192
4979,3210,3192
4991,3227,3226
5003,3226,3222
5015,3221,3217
5027,3229,3216
5038,3193,3209
5050,3179,3198
5062,3166,3192
5074,3173,3189
5086,3176,3183
5098,3180,3179
5109,3187,3184
5121,3179,3195
5133,3172,3194
5145,3157,3192
5157,3178,3205
5169,3176,3204
5180,3165,3184
5192,3171,3199
5204,3156,3199
5216,3165,3199
5228,3187,3204
5240,3195,3203
5251,3209,3187
5263,3215,3187
5275,3224,3195
5287,3192,3193
5299,3181,3208
5311,3179,3201
5322,3169,3203
5334,3173,3192
5346,3172,3192
5358,3200,3217
5370,3199,3207
5382,3201,3204
5393,3184,3205
5405,3171,3221
5417,3159,3220
5429,3172,3210
5441,3161,3228
5453,3136,3204
5464,3154,3195
5476,3173,3185
5488,3183,3177
5500,3195,3185
5512,3183,3168
5523,3196,3192
5535,3175,3189
5547,3169,3181
5559,3172,3188
5571,3169,3171
5583,3178,3188
5594,3160,3194
5606,3184,3211
5618,3188,3224
5630,3180,3194
5642,3164,3165
5654,3195,3178
5665,3227,3179
5677,3228,3178
5689,3222,3198
5701,3207,3198
5713,3173,3191
5725,3186,3221
5736,3162,3226
5748,3144,3212
5760,3150,3198
5772,3151,3213
5784,3167,3210
5796,3177,3208
5807,3181,3205
5819,3160,3197
5831,3200,3215
5843,3221,3207
5855,3224,3215
5867,3228,3227
5878,3214,3207
5890,3237,3217
5902,3223,3205
5914,3199,3200
5926,3210,3192
5938,3208,3197
5949,3197,3185
5961,3193,3165
5973,3207,3188
5985,3180,3181
5997,3175,3194
6009,3179,3213
6020,3188,3198
6032,3185,3196
6044,3184,3182
6056,3194,3191
6068,3201,3193
6080,3207,3180
6091,3235,3199
6103,3226,3179
6115,3217,3185
6127,3204,3197
6139,3187,3198
6150,3179,3191
6162,3176,3191
6174,3199,3207
6186,3188,3189
6198,3178,3198
6210,3188,3199
6221,3195,3224
6233,3184,3247
6245,3176,3252
6257,3175,3286
6269,3153,3257
6281,3153,3266
6292,3170,3281
6304,3156,3270
6316,3171,3273
6328,3161,3242
6340,3171,3241
6352,3176,3227
6363,3181,3213
6375,3196,3230
6387,3191,3214
6399,3187,3231
6411,3196,3236
6423,3219,3252
6434,3214,3240
6446,3196,3219
6458,3227,3230
6470,3209,3217
6482,3196,3194
6494,3186,3183
6505,3174,3183
6517,3171,3173
6529,3163,3192
6541,3167,3210
6553,3155,3197
6565,3171,3193
6576,3195,3178
6588,3213,3187
6600,3206,3170
6612,3194,3172
6624,3201,3193
6636,3145,3143
6647,3149,3146
6659,3171,3180
6671,3188,3191
6683,3196,3196
6695,3191,3189
6707,3192,3192
6718,3193,3184
6730,3203,3193
6742,3213,3207
6754,3199,3198
6766,3198,3168
6778,3187,3181
6789,3183,3196
6801,3173,3193
6813,3164,3173
6825,3172,3201
6837,3183,3192
6849,3186,3206
6860,3189,3199
6872,3195,3212
6884,3197,3224
6896,3199,3210
6908,3220,3231
6920,3208,3206
6931,3221,3212
6943,3209,3197
6955,3192,3190
6967,3207,3180
6979,3209,3186
6991,3240,3200
7002,3220,3205
7014,3204,3202
7026,3194,3211
7038,3184,3219
7050,3165,3206
7062,3162,3200
7073,3173,3208
7085,3167,3185
7097,3146,3173
7109,3155,3166
7121,3178,3154
7133,3187,3170
7144,3205,3162
7156,3185,3161
7168,3200,3178
7180,3191,3189
7192,3185,3204
7204,3185,3219
7215,3191,3225
7227,3193,3218
7239,3206,3238
7251,3213,3209
7263,3193,3200
7275,3215,3213
7286,3212,3197
7298,3198,3194
7310,3204,3188
7322,3192,3204
7334,3199,3198
7345,3199,3206
7357,3218,3211
7369,3201,3198
7381,3198,3204
7393,3216,3208
7405,3223,3219
7416,3215,3207
7428,3202,3206
7440,3214,3205
7452,3181,3198
7464,3158,3184
7476,3180,3196
7487,3175,3213
7499,3189,3209
7511,3162,3210
7523,3177,3218
7535,3168,3225
7547,3176,3219
7558,3170,3212
7570,3145,3195
7582,3166,3187
7594,3160,3168
7606,3186,3176
7618,3190,3182
7629,3179,3195
7641,3155,3144
7653,3173,3143
7665,3194,3178
7677,3217,3180
7689,3207,3190
7700,3197,3193
7712,3161,3171
7724,3163,3193
7736,3152,3199
7748,3152,3200
7760,3105,3166
7771,3119,3172
7783,3122,3172
7795,3117,3172
7807,3154,3216
7819,3172,3185
7831,3197,3186
7842,3215,3190
7854,3212,3191
7866,3214,3195
7878,3200,3207
7890,3192,3216
7902,3178,3194
7913,3166,3211
7925,3155,3197
7937,3144,3196
7949,3148,3196
7961,3133,3192
7973,3156,3196
7984,3171,3200
7996,3158,3184
8008,3188,3184
8020,3171,3188
8032,3181,3181
8044,3180,3165
8055,3184,3168
8067,3180,3145
8079,3158,3148
8091,3190,3179
8103,3181,3182
8114,3180,3173
8126,3201,3189
8138,3213,3233
8150,3212,3255
8162,3196,3293
8174,3210,3321
8185,3192,3320
8197,3194,3309
8209,3212,3293
8221,3219,3289
8233,3226,3268
8245,3233,3243
8256,3234,3247
8268,3216,3218
8280,3218,3199
8292,3212,3201
8304,3202,3213
8316,3191,3206
8327,3189,3178
8339,3202,3199
8351,3189,3183
8363,3182,3196
8375,3193,3204
8387,3167,3192
8398,3180,3204
8410,3170,3179
8422,3185,3217
8434,3178,3202
8446,3163,3200
8458,3154,3201
8469,3161,3207
8481,3189,3200
8493,3197,3202
8505,3211,3222
8517,3206,3212
8529,3199,3207
8540,3217,3197
8552,3206,3189
8564,3204,3177
8576,3191,3181
8588,3188,3187
8600,3200,3185
8611,3194,3195
8623,3216,3205
8635,3217,3189
8647,3177,3162
8659,3174,3167
8671,3183,3178
8682,3197,3191
8694,3176,3191
8706,3186,3195
8718,3197,3200
8730,3204,3194
8742,3213,3201
8753,3186,3188
8765,3155,3143
8777,3177,3149
8789,3207,3189
8801,3216,3191
8813,3209,3186
8824,3215,3199
8836,3192,3198
8848,3189,3192
8860,3183,3185
8872,3206,3193
8884,3184,3201
8895,3156,3209
8907,3156,3216
8919,3163,3209
8931,3168,3191
8943,3176,3214
8955,3160,3190
8966,3182,3180
8978,3201,3190
8990,3241,3216
9002,3254,3212
9014,3256,3222
9026,3261,3219
9037,3243,3235
9049,3225,3236
9061,3192,3214
9073,3189,3219
9085,3170,3221
9096,3178,3225
9108,3183,3206
9120,3177,3187
9132,3194,3167
9144,3205,3157
9156,3234,3159
9167,3202,3137
9179,3197,3149
9191,3199,3158
9203,3188,3148
9215,3191,3163
9227,3206,3185
9238,3206,3216
9250,3195,3220
9262,3171,3213
9274,3199,3214
9286,3195,3223
9298,3187,3221
9309,3177,3189
9321,3186,3202
9333,3176,3198
9345,3149,3184
9357,3165,3200
9369,3162,3196
9380,3165,3219
9392,3166,3203
9404,3168,3204
9416,3143,3204
9428,3154,3183
9440,3156,3199
9451,3154,3177
9463,3153,3189
9475,3176,3200
9487,3187,3205
9499,3196,3193
9511,3201,3172
9522,3206,3183
9534,3189,3165
9546,3192,3159
9558,3199,3179
9570,3190,3172
9582,3196,3175
9593,3179,3172
9605,3184,3188
9617,3177,3187
9629,3163,3197
9641,3146,3180
9653,3123,3168
9664,3156,3210
9676,3181,3255
9688,3216,3319
9700,3231,3369
9712,3208,3394
9724,3220,3421
9735,3208,3399
9747,3213,3367
9759,3191,3319
9771,3204,3313
9783,3194,3289
9795,3200,3271
9806,3225,3252
9818,3203,3217
9830,3194,3189
9842,3200,3183
9854,3176,3174
9865,3163,3155
9877,3187,3155
9889,3203,3183
9901,3187,3202
9913,3185,3212
9925,3192,3221
9936,3210,3226
9948,3228,3225
9960,3236,3216
9972,3252,3227
9984,3249,3210
9996,3232,3199
