timestamp_ms,ppg1,ppg2
0,3270,3159
11,3253,3151
23,3237,3154
35,3198,3138
47,3187,3116
59,3196,3096
70,3211,3093
82,3240,3096
94,3256,3097
106,3245,3102
118,3241,3124
130,3248,3129
141,3252,3137
153,3252,3148
165,3255,3157
177,3252,3154
189,3244,3135
200,3234,3133
212,3232,3131
224,3228,3127
236,3236,3121
248,3239,3116
260,3239,3129
271,3225,3129
283,3221,3140
295,3203,3138
307,3191,3137
319,3195,3125
330,3195,3119
342,3192,3114
354,3208,3123
366,3203,3128
378,3209,3150
390,3211,3153
401,3205,3153
413,3206,3140
425,3190,3122
437,3180,3109
449,3170,3101
460,3168,3101
472,3191,3093
484,3221,3094
496,3240,3104
508,3252,3118
520,3252,3127
531,3263,3142
543,3260,3151
555,3275,3151
567,3298,3174
579,3316,3179
590,3331,3197
602,3343,3215
614,3354,3220
626,3360,3218
638,3358,3224
650,3357,3224
661,3353,3209
673,3350,3212
685,3347,3199
697,3328,3185
709,3316,3175
721,3317,3163
732,3310,3168
744,3291,3165
756,3283,3181
768,3266,3182
780,3246,3183
791,3253,3187
803,3244,3170
815,3238,3167
827,3232,3166
839,3231,3148
851,3224,3154
862,3222,3161
874,3223,3161
886,3229,3159
898,3239,3151
910,3249,3139
921,3255,3134
933,3260,3149
945,3256,3158
957,3253,3165
969,3240,3165
981,3230,3161
992,3235,3163
1004,3223,3157
1016,3220,3155
1028,3204,3156
1040,3214,3158
1051,3222,3168
1063,3239,3165
1075,3241,3171
1087,3228,3164
1099,3218,3153
1111,3206,3145
1122,3211,3132
1134,3210,3127
1146,3202,3131
1158,3196,3120
1170,3197,3125
1182,3197,3136
1193,3198,3136
1205,3209,3148
1217,3214,3160
1229,3210,3164
1241,3198,3148
1252,3192,3134
1264,3182,3131
1276,3191,3134
1288,3202,3131
1300,3207,3122
1312,3204,3128
1323,3225,3141
1335,3236,3151
1347,3247,3176
1359,3262,3196
1371,3270,3203
1382,3285,3212
1394,3306,3215
1406,3325,3216
1418,3332,3216
1430,3336,3224
1442,3330,3222
1453,3335,3207
1465,3338,3197
1477,3335,3179
1489,3334,3168
1501,3327,3179
1513,3320,3176
1524,3317,3172
1536,3312,3194
1548,3311,3208
1560,3307,3206
1572,3279,3215
1583,3254,3217
1595,3238,3209
1607,3236,3209
1619,3223,3206
1631,3227,3207
1643,3215,3207
1654,3221,3208
1666,3230,3204
1678,3237,3189
1690,3246,3187
1702,3244,3188
1714,3243,3179
1725,3230,3167
1737,3224,3174
1749,3228,3179
1761,3218,3190
1773,3214,3188
1784,3207,3192
1796,3213,3203
1808,3222,3198
1820,3220,3192
1832,3198,3189
1844,3199,3178
1855,3197,3178
1867,3212,3186
1879,3224,3192
1891,3224,3193
1903,3224,3191
1914,3245,3188
1926,3252,3188
1938,3259,3173
1950,3252,3175
1962,3234,3181
1974,3217,3173
1985,3211,3173
1997,3204,3169
2009,3197,3156
2021,3183,3165
2033,3167,3166
2045,3178,3164
2056,3177,3162
2068,3185,3167
2080,3196,3178
2092,3206,3188
2104,3225,3189
2115,3260,3204
2127,3297,3212
2139,3319,3210
2151,3339,3233
2163,3354,3242
2175,3355,3231
2186,3363,3250
2198,3361,3232
2210,3354,3235
2222,3364,3230
2234,3357,3239
2246,3350,3244
2257,3331,3241
2269,3335,3237
2281,3322,3232
2293,3312,3222
2305,3309,3223
2316,3298,3233
2328,3275,3238
2340,3275,3230
2352,3271,3234
2364,3273,3225
2376,3276,3204
2387,3267,3193
2399,3261,3182
2411,3260,3183
2423,3272,3174
2435,3264,3180
2447,3274,3192
2458,3273,3188
2470,3269,3191
2482,3257,3184
2494,3234,3183
2506,3245,3187
2517,3250,3193
2529,3245,3195
2541,3241,3197
2553,3227,3201
2565,3234,3215
2577,3228,3208
2588,3233,3198
2600,3223,3204
2612,3204,3193
2624,3200,3191
2636,3205,3186
2648,3192,3178
2659,3203,3189
2671,3207,3192
2683,3220,3201
2695,3227,3202
2707,3215,3205
2718,3209,3194
2730,3217,3198
2742,3222,3187
2754,3234,3171
2766,3243,3182
2778,3236,3180
2789,3233,3178
2801,3230,3168
2813,3232,3169
2825,3242,3178
2837,3230,3187
2849,3222,3185
2860,3221,3184
2872,3225,3184
2884,3258,3199
2896,3293,3215
2908,3306,3228
2919,3316,3239
2931,3319,3255
2943,3326,3270
2955,3329,3270
2967,3333,3253
2979,3346,3264
2990,3355,3261
3002,3360,3272
3014,3354,3269
3026,3348,3279
3038,3362,3282
3050,3358,3277
3061,3352,3265
3073,3333,3254
3085,3331,3248
3097,3330,3230
3109,3313,3232
3121,3303,3236
3132,3290,3240
3144,3291,3255
3156,3291,3270
3168,3298,3264
3180,3305,3247
3192,3291,3256
3203,3277,3255
3215,3258,3267
3227,3259,3274
3239,3251,3281
3251,3240,3268
3262,3246,3272
3274,3255,3267
3286,3246,3262
3298,3250,3242
3310,3255,3235
3322,3259,3227
3333,3264,3235
3345,3274,3248
3357,3271,3271
3369,3262,3284
3381,3268,3285
3393,3269,3265
3404,3257,3252
3416,3257,3239
3428,3262,3239
3440,3262,3230
3452,3249,3215
3464,3231,3217
3475,3231,3209
3487,3218,3198
3499,3221,3199
3511,3221,3203
3523,3235,3218
3535,3231,3219
3546,3233,3231
3558,3236,3237
3570,3238,3241
3582,3236,3238
3594,3219,3239
3605,3221,3236
3617,3220,3231
3629,3229,3224
3641,3228,3219
3653,3221,3204
3665,3234,3219
3676,3237,3215
3688,3239,3225
3700,3258,3229
3712,3280,3233
3724,3295,3244
3736,3309,3238
3747,3334,3241
3759,3349,3250
3771,3358,3262
3783,3368,3274
3795,3360,3295
3807,3373,3316
3818,3368,3319
3830,3372,3335
3842,3384,3350
3854,3393,3345
3866,3393,3350
3877,3388,3332
3889,3391,3334
3901,3385,3344
3913,3373,3318
3925,3333,3299
3937,3307,3306
3948,3295,3303
3960,3287,3308
3972,3266,3306
3984,3247,3314
3996,3256,3318
4008,3248,3325
4019,3251,3327
4031,3244,3323
4043,3237,3330
4055,3237,3312
4067,3243,3309
4079,3241,3303
4090,3245,3304
4102,3260,3303
4114,3259,3283
4126,3275,3274
4138,3297,3272
4150,3310,3265
4161,3300,3260
4173,3310,3248
4185,3315,3232
4197,3296,3227
4209,3281,3236
4221,3248,3240
4232,3247,3252
4244,3236,3256
4256,3240,3265
4268,3229,3268
4280,3243,3279
4292,3252,3284
4303,3271,3288
4315,3263,3277
4327,3265,3274
4339,3269,3279
4351,3275,3278
4362,3283,3289
4374,3284,3288
4386,3287,3304
4398,3275,3285
4410,3271,3278
4422,3264,3265
4433,3246,3257
4445,3230,3261
4457,3245,3267
4469,3230,3262
4481,3255,3268
4493,3261,3278
4504,3280,3284
4516,3302,3279
4528,3318,3292
4540,3320,3300
4552,3342,3322
4564,3373,3347
4575,3396,3365
4587,3403,3384
4599,3397,3395
4611,3393,3415
4623,3385,3419
4635,3382,3430
4646,3382,3460
4658,3350,3450
4670,3332,3440
4682,3329,3432
4694,3320,3433
4706,3316,3418
4717,3321,3412
4729,3322,3406
4741,3308,3392
4753,3313,3392
4765,3318,3401
4776,3296,3399
4788,3283,3404
4800,3269,3408
4812,3272,3408
4824,3269,3418
4836,3260,3406
4847,3269,3402
4859,3262,3402
4871,3259,3400
4883,3251,3391
4895,3254,3375
4907,3276,3362
4918,3282,3359
4930,3294,3365
4942,3296,3367
4954,3303,3356
4966,3312,3367
4977,3307,3359
4989,3298,3365
5001,3286,3365
5013,3296,3388
5025,3273,3386
5037,3266,3393
5048,3267,3386
5060,3266,3359
5072,3258,3366
5084,3245,3360
5096,3248,3356
5108,3250,3370
5119,3255,3365
5131,3258,3365
5143,3279,3365
5155,3278,3359
5167,3290,3353
5179,3276,3345
5190,3275,3332
5202,3258,3315
5214,3239,3308
5226,3217,3290
5238,3225,3281
5249,3229,3278
5261,3243,3283
5273,3260,3279
5285,3285,3304
5297,3295,3313
5309,3303,3328
5320,3311,3341
5332,3321,3373
5344,3343,3425
5356,3346,3461
5368,3340,3515
5380,3351,3547
5391,3353,3596
5403,3350,3621
5415,3344,3647
5427,3324,3671
5439,3294,3673
5450,3275,3680
5462,3269,3685
5474,3297,3735
5486,3325,3811
5498,3371,3877
5510,3434,3953
5521,3480,4014
5533,3509,4047
5545,3534,4056
5557,3544,4051
5569,3531,4014
5581,3504,3961
5592,3468,3886
5604,3415,3800
5616,3363,3713
5628,3312,3638
5640,3278,3545
5652,3269,3460
5663,3275,3423
5675,3284,3374
5687,3272,3342
5699,3285,3342
5711,3291,3344
5722,3303,3342
5734,3342,3355
5746,3369,3360
5758,3395,3370
5770,3431,3377
5782,3444,3386
5793,3461,3397
5805,3489,3413
5817,3505,3410
5829,3507,3426
5841,3509,3440
5852,3514,3467
5864,3509,3490
5876,3506,3513
5888,3493,3531
5900,3486,3548
5912,3473,3547
5923,3470,3552
5935,3465,3549
5947,3458,3557
5959,3449,3558
5971,3428,3556
5983,3419,3554
5994,3413,3554
6006,3420,3586
6018,3418,3612
6030,3426,3647
6042,3427,3683
6054,3439,3704
6065,3435,3723
6077,3440,3737
6089,3447,3778
6101,3450,3817
6113,3470,3856
6124,3486,3932
6136,3508,4012
6148,3535,4095
6160,3562,4095
6172,3583,4095
6184,3606,4095
6195,3613,4095
6207,3595,4095
6219,3560,4095
6231,3539,4095
6243,3500,4095
6255,3467,4095
6266,3436,4095
6278,3419,4095
6290,3419,4083
6302,3444,4056
6314,3460,3998
6325,3487,3958
6337,3516,3932
6349,3539,3905
6361,3562,3900
6373,3577,3892
6385,3576,3855
6396,3586,3819
6408,3600,3788
6420,3600,3745
6432,3579,3692
6444,3551,3642
6456,3487,3599
6467,3434,3557
6479,3395,3541
6491,3389,3526
6503,3388,3512
6515,3387,3521
6526,3403,3541
6538,3433,3587
6550,3468,3633
6562,3509,3651
6574,3533,3664
6586,3553,3673
6597,3560,3696
6609,3564,3743
6621,3567,3785
6633,3547,3815
6645,3528,3825
6657,3502,3817
6668,3481,3806
6680,3453,3776
6692,3421,3748
6704,3382,3710
6716,3350,3688
6728,3337,3672
6739,3327,3671
6751,3350,3673
6763,3373,3666
6775,3415,3658
6787,3434,3624
6799,3431,3582
6810,3407,3535
6822,3392,3493
6834,3366,3456
6846,3346,3419
6858,3348,3399
6869,3354,3404
6881,3361,3409
6893,3379,3438
6905,3404,3468
6917,3411,3518
6929,3414,3574
6940,3414,3629
6952,3415,3677
6964,3411,3717
6976,3385,3765
6988,3367,3790
7000,3354,3818
7011,3349,3831
7023,3346,3840
7035,3333,3820
7047,3336,3798
7059,3333,3760
7070,3318,3711
7082,3309,3671
7094,3295,3619
7106,3285,3585
7118,3270,3533
7130,3262,3490
7141,3269,3455
7153,3272,3408
7165,3267,3358
7177,3249,3313
7189,3230,3275
7201,3207,3240
7212,3182,3207
7224,3177,3203
7236,3181,3200
7248,3187,3197
7260,3199,3203
7272,3228,3218
7283,3247,3247
7295,3261,3257
7307,3279,3279
7319,3291,3293
7331,3299,3302
7343,3308,3316
7354,3321,3322
7366,3315,3340
7378,3321,3346
7390,3306,3345
7402,3297,3357
7413,3293,3353
7425,3295,3341
7437,3299,3322
7449,3287,3302
7461,3291,3290
7473,3280,3277
7484,3260,3258
7496,3270,3250
7508,3271,3244
7520,3274,3242
7532,3255,3235
7544,3257,3234
7555,3252,3219
7567,3255,3208
7579,3259,3187
7591,3260,3182
7603,3249,3171
7615,3240,3167
7626,3234,3168
7638,3239,3167
7650,3252,3166
7662,3276,3202
7674,3290,3228
7686,3305,3272
7697,3313,3327
7709,3325,3396
7721,3326,3456
7733,3335,3521
7745,3358,3562
7756,3386,3615
7768,3416,3650
7780,3422,3671
7792,3427,3687
7804,3427,3679
7816,3414,3658
7827,3412,3622
7839,3408,3586
7851,3391,3532
7863,3379,3487
7875,3352,3425
7887,3310,3391
7898,3281,3360
7910,3259,3330
7922,3243,3298
7934,3246,3280
7946,3248,3248
7957,3266,3236
7969,3280,3223
7981,3282,3197
7993,3283,3187
8005,3273,3182
8017,3283,3195
8028,3285,3204
8040,3288,3218
8052,3295,3226
8064,3296,3246
8076,3301,3264
8088,3312,3271
8099,3323,3282
8111,3337,3293
8123,3338,3279
8135,3332,3271
8147,3325,3272
8158,3321,3273
8170,3302,3267
8182,3278,3267
8194,3244,3261
8206,3227,3247
8218,3232,3241
8229,3239,3219
8241,3253,3211
8253,3264,3189
8265,3274,3184
8277,3284,3188
8289,3302,3195
8300,3292,3197
8312,3291,3184
8324,3291,3193
8336,3281,3193
8348,3267,3187
8360,3259,3180
8371,3263,3181
8383,3282,3186
8395,3291,3197
8407,3317,3224
8419,3355,3273
8430,3374,3316
8442,3393,3367
8454,3413,3409
8466,3418,3445
8478,3425,3490
8490,3452,3551
8501,3478,3586
8513,3492,3626
8525,3509,3671
8537,3507,3684
8549,3519,3683
8561,3507,3682
8572,3502,3671
8584,3492,3658
8596,3463,3631
8608,3433,3619
8620,3421,3587
8632,3409,3559
8643,3383,3535
8655,3388,3522
8667,3409,3496
8679,3421,3464
8691,3425,3441
8702,3414,3407
8714,3405,3366
8726,3375,3346
8738,3348,3312
8750,3344,3287
8762,3333,3284
8773,3326,3274
8785,3341,3274
8797,3355,3297
8809,3366,3305
8821,3358,3312
8833,3348,3324
8844,3343,3332
8856,3338,3325
8868,3342,3326
8880,3355,3319
8892,3367,3321
8903,3369,3319
8915,3372,3316
8927,3377,3292
8939,3373,3278
8951,3369,3257
8963,3344,3228
8974,3321,3212
8986,3303,3185
8998,3306,3188
9010,3302,3188
9022,3301,3197
9034,3299,3202
9045,3281,3205
9057,3282,3216
9069,3289,3225
9081,3287,3224
9093,3307,3223
9105,3328,3215
9116,3340,3208
9128,3345,3190
9140,3354,3184
9152,3352,3168
9164,3361,3162
9175,3375,3162
9187,3374,3163
9199,3367,3178
9211,3373,3203
9223,3391,3229
9235,3417,3281
9246,3444,3319
9258,3455,3375
9270,3476,3430
9282,3501,3494
9294,3503,3543
9306,3511,3596
9317,3510,3635
9329,3495,3662
9341,3508,3690
9353,3516,3695
9365,3521,3691
9376,3527,3680
9388,3521,3655
9400,3509,3628
9412,3511,3583
9424,3505,3548
9436,3494,3510
9447,3475,3475
9459,3450,3434
9471,3450,3396
9483,3450,3367
9495,3442,3329
9507,3450,3294
9518,3445,3268
9530,3427,3248
9542,3406,3227
9554,3398,3206
9566,3393,3182
9578,3390,3183
9589,3374,3200
9601,3364,3217
9613,3353,3238
9625,3346,3253
9637,3365,3273
9649,3373,3282
9660,3369,3295
9672,3373,3293
9684,3360,3286
9696,3359,3271
9708,3355,3273
9719,3351,3271
9731,3372,3273
9743,3388,3256
9755,3412,3248
9767,3423,3242
9779,3411,3234
9790,3408,3234
9802,3404,3233
9814,3397,3226
9826,3406,3239
9838,3400,3235
9850,3403,3221
9861,3402,3212
9873,3396,3205
9885,3383,3192
9897,3372,3190
9909,3362,3195
9921,3345,3175
9932,3330,3170
9944,3327,3173
9956,3318,3163
9968,3308,3169
9980,3307,3175
9992,3313,3166
10003,3329,3184
10015,3356,3198
10027,3399,3229
10039,3440,3251
10051,3477,3281
10063,3512,3328
10074,3542,3386
10086,3562,3441
10098,3583,3499
10110,3608,3552
10122,3636,3600
10134,3660,3636
10145,3664,3668
10157,3668,3672
10169,3660,3674
10181,3641,3669
10193,3620,3639
10205,3595,3603
10216,3568,3573
10228,3539,3529
10240,3509,3486
10252,3500,3451
10264,3471,3425
10276,3457,3393
10287,3440,3361
10299,3415,3307
10311,3386,3265
10323,3389,3238
10335,3402,3215
10346,3399,3193
10358,3405,3175
10370,3411,3161
10382,3414,3170
10394,3417,3171
10406,3406,3185
10417,3404,3196
10429,3405,3221
10441,3409,3228
10453,3406,3236
10465,3404,3245
10477,3393,3247
10488,3389,3241
10500,3405,3239
10512,3399,3239
10524,3406,3241
10536,3394,3221
10548,3391,3212
10559,3382,3217
10571,3373,3200
10583,3363,3207
10595,3350,3208
10607,3319,3199
10619,3309,3177
10630,3295,3154
10642,3297,3152
10654,3295,3139
10666,3304,3126
10678,3305,3113
10690,3306,3110
10701,3280,3105
10713,3266,3123
10725,3258,3131
10737,3254,3133
10749,3255,3137
10761,3251,3125
10772,3231,3116
10784,3220,3110
10796,3225,3104
10808,3238,3115
10820,3259,3115
10831,3266,3112
10843,3293,3120
10855,3303,3115
10867,3325,3118
10879,3348,3125
10891,3383,3139
10902,3400,3150
10914,3426,3172
10926,3430,3178
10938,3444,3192
10950,3473,3224
10962,3501,3255
10973,3532,3300
10985,3562,3341
10997,3591,3383
11009,3596,3405
11021,3601,3427
11033,3583,3426
11044,3567,3426
11056,3541,3399
11068,3527,3386
11080,3491,3357
11092,3461,3319
11104,3438,3283
11115,3418,3263
11127,3385,3247
11139,3359,3221
11151,3354,3207
11163,3339,3199
11175,3324,3190
11186,3314,3183
11198,3309,3194
11210,3305,3201
11222,3300,3201
11234,3283,3193
11246,3271,3194
11257,3267,3186
11269,3266,3191
11281,3273,3194
11293,3295,3201
11305,3304,3205
11317,3326,3217
11328,3352,3221
11340,3376,3227
11352,3378,3224
11364,3374,3223
11376,3377,3227
11388,3354,3212
11399,3305,3208
11411,3275,3196
11423,3268,3193
11435,3258,3189
11447,3252,3180
11459,3272,3168
11470,3280,3166
11482,3279,3162
11494,3268,3171
11506,3260,3171
11518,3256,3170
11530,3251,3176
11541,3232,3167
11553,3230,3154
11565,3238,3146
11577,3270,3138
11589,3290,3131
11600,3298,3132
11612,3292,3134
11624,3281,3124
11636,3266,3128
11648,3233,3124
11660,3201,3115
11671,3182,3126
11683,3188,3119
11695,3218,3127
11707,3249,3134
11719,3298,3160
11731,3344,3173
11742,3399,3204
11754,3439,3235
11766,3475,3275
11778,3489,3299
11790,3503,3320
11802,3504,3327
11813,3522,3342
11825,3533,3351
11837,3534,3367
11849,3496,3359
11861,3447,3352
11873,3416,3333
11884,3391,3313
11896,3379,3294
11908,3363,3279
11920,3337,3251
11932,3316,3226
11944,3287,3211
11955,3251,3184
11967,3220,3169
11979,3205,3148
11991,3187,3133
12003,3195,3124
12015,3229,3136
12026,3233,3136
12038,3243,3129
12050,3242,3127
12062,3236,3118
12074,3226,3141
12086,3229,3157
12097,3235,3161
12109,3246,3169
12121,3273,3171
12133,3289,3180
12145,3288,3169
12156,3286,3182
12168,3277,3189
12180,3258,3193
12192,3236,3185
12204,3212,3178
12216,3193,3164
12227,3183,3170
12239,3177,3150
12251,3180,3139
12263,3176,3132
12275,3163,3126
12287,3145,3119
12299,3135,3122
12310,3126,3132
12322,3121,3132
12334,3125,3140
12346,3135,3158
12358,3156,3137
12369,3176,3123
12381,3218,3119
12393,3236,3116
12405,3245,3120
12417,3236,3115
12429,3212,3120
12440,3201,3128
12452,3174,3133
12464,3165,3138
12476,3157,3147
12488,3177,3158
12500,3206,3162
12511,3239,3178
12523,3294,3190
12535,3342,3198
12547,3373,3221
12559,3416,3237
12571,3439,3255
12582,3473,3275
12594,3507,3298
12606,3523,3314
12618,3514,3324
12630,3493,3324
12642,3485,3317
12653,3458,3305
12665,3443,3289
12677,3405,3267
12689,3379,3256
12701,3355,3251
12713,3320,3242
12724,3291,3221
12736,3269,3211
12748,3238,3208
12760,3201,3203
12772,3168,3190
12784,3163,3183
12795,3149,3173
12807,3142,3153
12819,3138,3157
12831,3145,3151
12843,3142,3149
12855,3158,3156
12866,3187,3160
12878,3206,3165
12890,3219,3173
12902,3219,3165
12914,3224,3177
12926,3226,3177
12937,3216,3164
12949,3209,3173
12961,3199,3170
12973,3180,3174
12985,3175,3170
12996,3158,3151
13008,3170,3149
13020,3172,3135
13032,3161,3117
13044,3151,3111
13056,3156,3109
13067,3168,3117
13079,3172,3110
13091,3170,3100
13103,3166,3101
13115,3155,3109
13127,3137,3116
13138,3125,3133
13150,3100,3144
13162,3103,3162
13174,3109,3170
13186,3115,3167
13198,3138,3158
13209,3131,3153
13221,3122,3154
13233,3124,3164
13245,3121,3150
13257,3142,3141
13269,3164,3140
13280,3211,3142
13292,3260,3160
13304,3289,3166
13316,3313,3179
13328,3327,3201
13340,3330,3216
13351,3353,3239
13363,3371,3263
13375,3376,3272
13387,3380,3291
13399,3374,3296
13410,3354,3296
13422,3328,3296
13434,3314,3287
13446,3302,3278
13458,3287,3264
13470,3274,3254
13481,3260,3234
13493,3243,3219
13505,3217,3198
13517,3189,3189
13529,3153,3170
13541,3128,3159
13552,3088,3147
13564,3071,3147
13576,3067,3135
13588,3094,3142
13600,3101,3154
13612,3126,3156
13623,3126,3160
13635,3125,3155
13647,3104,3137
13659,3121,3126
13671,3131,3115
13683,3130,3100
13694,3139,3089
13706,3137,3082
13718,3131,3093
13730,3148,3098
13742,3168,3103
13754,3196,3125
13765,3201,3136
13777,3220,3144
13789,3219,3146
13801,3185,3159
13813,3154,3145
13825,3094,3121
13836,3045,3099
13848,3015,3078
13860,2991,3059
13872,2983,3038
13884,2982,3014
13896,2988,2996
13907,3001,2966
13919,3001,2960
13931,3004,2968
13943,3004,2969
13955,3000,2982
13967,2994,2989
13978,2977,3001
13990,2987,3001
14002,2999,3004
14014,3015,3015
14026,3029,3027
14038,3027,3036
14049,3043,3053
14061,3071,3062
14073,3082,3074
14085,3092,3078
14097,3101,3078
14108,3113,3073
14120,3134,3062
14132,3144,3065
14144,3147,3067
14156,3158,3078
14168,3153,3095
14179,3143,3120
14191,3147,3135
14203,3159,3147
14215,3177,3146
14227,3178,3150
14239,3181,3150
14250,3170,3144
14262,3143,3135
14274,3128,3130
14286,3124,3135
14298,3098,3139
14310,3106,3146
14321,3108,3137
14333,3108,3148
14345,3104,3136
14357,3112,3149
14369,3116,3142
14381,3106,3150
14392,3094,3154
14404,3085,3147
14416,3071,3155
14428,3067,3153
14440,3060,3145
14452,3070,3145
14463,3074,3143
14475,3081,3142
14487,3072,3137
14499,3090,3138
14511,3101,3142
14523,3113,3147
14534,3117,3163
14546,3116,3170
14558,3108,3193
14570,3103,3206
14582,3111,3212
14594,3124,3218
14605,3142,3216
14617,3162,3206
14629,3175,3193
14641,3177,3197
14653,3190,3189
14665,3202,3198
14676,3189,3189
14688,3187,3204
14700,3171,3194
14712,3157,3194
14724,3139,3177
14736,3137,3172
14747,3130,3164
14759,3122,3169
14771,3127,3175
14783,3124,3176
14795,3140,3185
14806,3128,3192
14818,3111,3190
14830,3097,3188
14842,3078,3173
14854,3062,3179
14866,3068,3176
14877,3086,3176
14889,3123,3184
14901,3165,3197
14913,3190,3222
14925,3220,3226
14937,3231,3236
14948,3234,3244
14960,3238,3260
14972,3239,3274
14984,3241,3277
14996,3252,3287
15008,3276,3293
15019,3288,3292
15031,3310,3293
15043,3298,3279
15055,3289,3285
15067,3271,3298
15079,3266,3300
15090,3250,3301
15102,3235,3291
15114,3221,3286
15126,3203,3280
15138,3178,3275
15150,3159,3261
15161,3150,3259
15173,3143,3236
15185,3142,3235
15197,3156,3215
15209,3149,3209
15221,3155,3191
15232,3160,3194
15244,3158,3194
15256,3154,3188
15268,3147,3197
15280,3148,3210
15292,3161,3216
15303,3163,3223
15315,3172,3228
15327,3172,3220
15339,3172,3232
15351,3154,3239
15363,3148,3237
15374,3155,3248
15386,3131,3242
15398,3121,3234
15410,3105,3238
15422,3092,3238
15434,3081,3217
15445,3082,3218
15457,3087,3201
15469,3118,3208
15481,3143,3211
15493,3141,3211
15505,3148,3208
15516,3136,3200
15528,3124,3195
15540,3112,3184
15552,3109,3169
15564,3111,3170
15575,3139,3163
15587,3154,3170
15599,3158,3170
15611,3160,3177
15623,3170,3193
15635,3159,3197
15646,3161,3205
15658,3158,3208
15670,3125,3202
15682,3117,3208
15694,3118,3203
15706,3138,3209
15717,3176,3225
15729,3198,3231
15741,3237,3248
15753,3278,3258
15765,3306,3269
15777,3320,3268
15788,3317,3293
15800,3312,3308
15812,3299,3344
15824,3289,3359
15836,3288,3375
15848,3288,3385
15859,3278,3407
15871,3264,3423
15883,3251,3437
15895,3236,3439
15907,3219,3427
15919,3222,3421
15930,3229,3405
15942,3232,3411
15954,3224,3387
15966,3207,3366
15978,3196,3334
15990,3149,3303
16001,3130,3283
16013,3122,3288
16025,3132,3282
16037,3155,3286
16049,3178,3270
16061,3199,3267
16072,3197,3269
16084,3195,3259
16096,3202,3276
16108,3189,3266
16120,3171,3266
16132,3137,3251
16143,3100,3241
16155,3082,3236
16167,3072,3246
16179,3066,3240
16191,3070,3244
16203,3081,3235
16214,3097,3247
16226,3126,3257
16238,3155,3260
16250,3191,3265
16262,3211,3288
16274,3224,3313
16285,3230,3328
16297,3255,3343
16309,3270,3331
16321,3294,3342
16333,3296,3343
16344,3300,3340
16356,3282,3347
16368,3252,3348
16380,3221,3359
16392,3193,3373
16404,3177,3369
16415,3169,3353
16427,3187,3347
16439,3205,3349
16451,3212,3347
16463,3213,3346
16475,3225,3341
16486,3233,3335
16498,3263,3344
16510,3288,3357
16522,3286,3368
16534,3293,3383
16546,3328,3406
16557,3363,3442
16569,3401,3471
16581,3413,3514
16593,3415,3538
16605,3425,3585
16617,3445,3622
16628,3440,3638
16640,3443,3663
16652,3450,3673
16664,3445,3683
16676,3428,3685
16688,3407,3672
16700,3398,3664
16711,3376,3648
16723,3368,3620
16735,3362,3601
16747,3352,3573
16759,3338,3564
16771,3319,3536
16782,3316,3508
16794,3311,3496
16806,3288,3469
16818,3262,3452
16830,3259,3435
16841,3251,3416
16853,3256,3404
16865,3249,3402
16877,3241,3393
16889,3263,3385
16901,3266,3378
16912,3279,3382
16924,3286,3395
16936,3302,3403
16948,3301,3423
16960,3304,3420
16972,3296,3403
16983,3297,3388
16995,3293,3381
17007,3249,3366
17019,3217,3366
17031,3207,3356
17043,3228,3365
17054,3215,3357
17066,3204,3347
17078,3176,3335
17090,3166,3327
17102,3159,3324
17114,3160,3310
17125,3182,3296
17137,3205,3279
17149,3204,3266
17161,3204,3253
17173,3214,3223
17185,3230,3221
17196,3240,3210
17208,3240,3209
17220,3228,3208
17232,3220,3202
17244,3234,3204
17256,3220,3208
17267,3210,3216
17279,3215,3225
17291,3237,3236
17303,3250,3242
17315,3280,3257
17327,3312,3275
17338,3319,3317
17350,3323,3363
17362,3314,3406
17374,3290,3453
17386,3278,3502
17398,3268,3524
17409,3274,3556
17421,3288,3571
17433,3301,3577
17445,3322,3587
17457,3336,3581
17469,3344,3571
17480,3349,3556
17492,3347,3537
17504,3331,3514
17516,3316,3488
17528,3287,3463
17540,3276,3443
17551,3245,3412
17563,3217,3400
17575,3197,3379
17587,3195,3368
17599,3189,3371
17611,3199,3358
17622,3198,3356
17634,3212,3349
17646,3221,3341
17658,3233,3331
17670,3243,3320
17681,3246,3322
17693,3255,3305
17705,3261,3308
17717,3254,3314
17729,3234,3323
17741,3229,3336
17752,3242,3351
17764,3251,3356
17776,3253,3365
17788,3249,3366
17800,3251,3357
17812,3244,3350
17823,3236,3343
17835,3222,3324
17847,3219,3312
17859,3202,3295
17871,3185,3281
17883,3182,3273
17894,3174,3262
17906,3190,3253
17918,3185,3245
17930,3198,3244
17942,3206,3237
17954,3216,3244
17965,3212,3233
17977,3221,3233
17989,3216,3244
18001,3242,3240
18013,3255,3242
18025,3278,3234
18036,3303,3246
18048,3319,3260
18060,3337,3290
18072,3354,3325
18084,3365,3357
18096,3376,3405
18107,3376,3457
18119,3381,3512
18131,3394,3556
18143,3404,3593
18155,3388,3628
18167,3379,3647
18178,3370,3668
18190,3344,3682
18202,3333,3681
18214,3317,3667
18226,3312,3641
18238,3313,3622
18249,3303,3596
18261,3271,3566
18273,3256,3527
18285,3249,3498
18297,3242,3464
18309,3249,3458
18320,3255,3444
18332,3266,3421
18344,3272,3389
18356,3251,3369
18368,3216,3328
18380,3187,3297
18391,3175,3268
18403,3152,3233
18415,3143,3212
18427,3142,3200
18439,3142,3215
18451,3150,3203
18462,3130,3177
18474,3138,3164
18486,3134,3131
18498,3118,3104
18510,3095,3080
18522,3076,3045
18533,3069,3037
18545,3050,3024
18557,3063,3035
18569,3096,3039
18581,3137,3085
18593,3187,3129
18604,3230,3174
18616,3270,3248
18628,3298,3303
18640,3333,3355
18652,3364,3393
18664,3381,3400
18675,3392,3401
18687,3388,3386
18699,3374,3352
18711,3335,3295
18723,3295,3231
18735,3231,3169
18746,3148,3087
18758,3066,3021
18770,2999,2948
18782,2934,2875
18794,2861,2781
18806,2799,2699
18817,2752,2611
18829,2713,2545
18841,2682,2510
18853,2646,2498
18865,2626,2522
18877,2630,2578
18888,2638,2666
18900,2669,2749
18912,2727,2858
18924,2779,2950
18936,2829,3044
18948,2868,3127
18959,2872,3194
18971,2902,3260
18983,2909,3320
18995,2918,3360
19007,2965,3404
19019,3029,3437
19030,3054,3473
19042,3071,3483
19054,3087,3484
19066,3115,3450
19078,3103,3392
19090,3080,3308
19101,3040,3231
19113,2991,3163
19125,2955,3114
19137,2937,3095
19149,2929,3096
19161,2918,3111
19172,2922,3140
19184,2914,3151
19196,2896,3156
19208,2875,3149
19220,2850,3145
19231,2847,3133
19243,2840,3132
19255,2824,3106
19267,2810,3103
19279,2787,3085
19291,2775,3088
19302,2781,3092
19314,2794,3108
19326,2823,3117
19338,2845,3135
19350,2871,3138
19362,2904,3123
19373,2927,3122
19385,2937,3130
19397,2943,3139
19409,2925,3155
19421,2917,3156
19433,2884,3165
19444,2833,3143
19456,2779,3123
19468,2714,3109
19480,2649,3061
19492,2611,3033
19504,2601,2998
19515,2607,2982
19527,2620,2975
19539,2622,2953
19551,2637,2948
19563,2663,2945
19575,2706,2946
19586,2764,2932
19598,2818,2919
19610,2871,2913
19622,2930,2934
19634,2988,2970
19646,3048,3012
19657,3092,3055
19669,3122,3118
19681,3150,3198
19693,3158,3288
19705,3170,3366
19717,3186,3437
19728,3177,3487
19740,3198,3522
19752,3197,3553
19764,3194,3550
19776,3202,3498
19788,3203,3419
19799,3181,3343
19811,3123,3269
19823,3065,3211
19835,3006,3154
19847,2981,3115
19859,2984,3103
19870,3027,3124
19882,3074,3131
19894,3124,3114
19906,3136,3077
19918,3091,3029
19930,3016,2990
19941,2925,2973
19953,2810,2939
19965,2719,2901
19977,2631,2874
19989,2592,2861
20001,2570,2844
20012,2586,2816
20024,2621,2798
20036,2707,2789
20048,2810,2794
20060,2913,2812
20072,2971,2916
20083,3093,3117
20095,3240,3385
20107,3393,3716
20119,3525,4023
20131,3626,4095
20143,3673,4095
20154,3688,4095
20166,3651,4095
20178,3619,4095
20190,3582,4028
20202,3569,3840
20214,3568,3673
20225,3567,3553
20237,3549,3475
20249,3502,3419
20261,3458,3401
20273,3397,3396
20285,3339,3402
20296,3283,3409
20308,3215,3417
20320,3139,3417
20332,3063,3404
20344,2981,3397
20356,2914,3389
20367,2899,3359
20379,2913,3357
20391,2935,3350
20403,2967,3348
20415,3012,3354
20427,3084,3363
20438,3161,3382
20450,3231,3436
20462,3268,3483
20474,3289,3549
20486,3296,3592
20498,3309,3623
20509,3310,3626
20521,3300,3615
20533,3280,3575
20545,3265,3523
20557,3246,3439
20569,3197,3353
20580,3139,3263
20592,3100,3167
20604,3063,3089
20616,3038,3002
20628,3026,2919
20640,3014,2859
20651,3018,2804
20663,3045,2756
20675,3057,2738
20687,3050,2720
20699,3057,2704
20711,3056,2673
20722,3057,2622
20734,3076,2588
20746,3087,2554
20758,3103,2526
20770,3153,2500
20782,3197,2487
20793,3238,2475
20805,3265,2473
20817,3291,2469
20829,3288,2459
20841,3281,2431
20853,3254,2412
20864,3223,2405
20876,3163,2374
20888,3106,2362
20900,3071,2347
20912,3065,2346
20923,3059,2349
20935,3093,2380
20947,3132,2404
20959,3168,2469
20971,3207,2514
20983,3248,2559
20994,3298,2607
21006,3370,2649
21018,3421,2662
21030,3486,2649
21042,3507,2647
21054,3507,2632
21065,3477,2603
21077,3462,2563
21089,3459,2529
21101,3464,2537
21113,3442,2550
21125,3413,2632
21137,3346,2733
21148,3275,2885
21160,3210,3031
21172,3151,3192
21184,3135,3342
21196,3145,3467
21208,3161,3573
21219,3179,3632
21231,3202,3692
21243,3214,3727
21255,3211,3718
21267,3172,3687
21278,3121,3629
21290,3070,3568
21302,3016,3507
21314,2993,3446
21326,3004,3393
21338,3039,3353
21349,3064,3326
21361,3071,3315
21373,3083,3318
21385,3102,3324
21397,3094,3306
21409,3098,3281
21420,3096,3244
21432,3106,3213
21444,3122,3144
21456,3154,3074
21468,3180,2967
21480,3227,2823
21492,3297,2636
21503,3335,2443
21515,3341,2285
21527,3323,2179
21539,3309,2131
21551,3290,2134
21563,3284,2170
21574,3267,2249
21586,3270,2348
21598,3263,2462
21610,3253,2557
21622,3240,2658
21633,3234,2717
21645,3219,2798
21657,3208,2856
21669,3204,2899
21681,3186,2905
21693,3140,2911
21704,3086,2905
21716,3059,2899
21728,3032,2890
21740,3021,2869
21752,3026,2875
21764,3037,2877
21775,3044,2889
21787,3058,2911
21799,3090,2949
21811,3129,2976
21823,3183,3040
21835,3224,3100
21846,3271,3153
21858,3307,3213
21870,3341,3265
21882,3352,3296
21894,3361,3335
21906,3356,3350
21917,3358,3352
21929,3380,3333
21941,3381,3325
21953,3374,3298
21965,3357,3267
21977,3325,3253
21988,3297,3234
22000,3250,3206
22012,3216,3173
22024,3189,3163
22036,3182,3147
22048,3185,3117
22059,3186,3093
22071,3199,3071
22083,3211,3050
22095,3211,3043
22107,3199,3021
22119,3184,2991
22130,3164,2983
22142,3155,2970
22154,3156,2984
22166,3179,2996
22178,3203,2998
22190,3220,3036
22201,3225,3076
22213,3252,3104
22225,3274,3129
22237,3278,3150
22249,3270,3162
22261,3261,3190
22272,3244,3174
22284,3236,3167
22296,3229,3144
22308,3218,3118
22320,3199,3093
22332,3170,3057
22343,3145,3060
22355,3125,3063
22367,3139,3093
22379,3168,3141
22391,3239,3194
22403,3327,3262
22414,3404,3322
22426,3466,3374
22438,3499,3413
22450,3521,3437
22462,3530,3433
22474,3537,3421
22485,3540,3403
22497,3539,3361
22509,3535,3322
22521,3514,3291
22533,3482,3261
22545,3455,3245
22556,3429,3228
22568,3398,3220
22580,3334,3213
22592,3246,3193
22604,3197,3183
22616,3155,3152
22627,3151,3110
22639,3160,3091
22651,3210,3062
22663,3284,3034
22675,3357,3041
22687,3404,3042
22698,3480,3065
22710,3568,3108
22722,3671,3165
22734,3787,3251
22746,3887,3337
22758,3982,3431
22769,4054,3508
22781,4095,3574
22793,4095,3618
22805,4095,3660
22817,4095,3688
22829,4095,3717
22840,4095,3732
22852,4095,3749
22864,4095,3758
22876,4095,3748
22888,4095,3726
22900,4093,3679
22911,4018,3600
22923,3908,3526
22935,3813,3445
22947,3709,3358
22959,3624,3269
22971,3539,3203
22982,3453,3139
22994,3375,3101
23006,3273,3057
23018,3160,3040
23030,3023,3015
23042,2895,3002
23053,2770,2985
23065,2674,2979
23077,2606,2968
23089,2577,2969
23101,2567,2977
23113,2585,2986
23124,2607,3013
23136,2678,3044
23148,2755,3091
23160,2839,3129
23172,2923,3175
23184,2991,3202
23195,3031,3222
23207,3074,3241
23219,3080,3238
23231,3098,3225
23243,3104,3215
23255,3106,3188
23266,3116,3124
23278,3128,3045
23290,3167,2967
23302,3191,2895
23314,3207,2859
23326,3185,2838
23337,3161,2844
23349,3149,2880
23361,3140,2921
23373,3142,2983
23385,3141,3059
23397,3154,3113
23408,3175,3172
23420,3186,3226
23432,3202,3281
23444,3220,3334
23456,3232,3415
23468,3262,3497
23479,3294,3607
23491,3314,3734
23503,3329,3856
23515,3350,3980
23527,3371,4081
23539,3373,4095
23550,3348,4095
23562,3306,4095
23574,3266,4095
23586,3223,4095
23598,3205,4095
23610,3187,4095
23621,3171,4062
23633,3179,3985
23645,3182,3886
23657,3164,3776
23669,3160,3652
23681,3148,3524
23692,3120,3387
23704,3064,3264
23716,3007,3139
23728,2990,3047
23740,3005,2978
23752,3045,2933
23763,3081,2925
23775,3094,2934
23787,3080,2962
23799,3028,3012
23811,2943,3077
23823,2840,3179
23834,2713,3282
23846,2612,3378
23858,2528,3464
23870,2487,3559
23882,2480,3606
23894,2529,3647
23905,2621,3642
23917,2734,3638
23929,2871,3615
23941,3019,3593
23953,3145,3558
23965,3268,3508
23976,3392,3450
23988,3494,3403
24000,3573,3355
24012,3636,3304
24024,3646,3245
24036,3609,3191
24047,3565,3151
24059,3501,3074
24071,3433,3015
24083,3369,2970
24095,3296,2916
24107,3243,2869
24118,3184,2819
24130,3127,2766
24142,3059,2736
24154,2998,2694
24166,2931,2664
24178,2894,2647
24189,2862,2616
24201,2854,2581
24213,2839,2550
24225,2839,2504
24237,2837,2481
24249,2845,2462
24260,2858,2447
24272,2823,2422
24284,2793,2384
24296,2778,2352
24308,2773,2305
24320,2761,2252
24331,2729,2201
24343,2701,2173
24355,2668,2163
24367,2667,2170
24379,2707,2230
24391,2793,2322
24402,2894,2439
24414,2979,2556
24426,3068,2661
24438,3163,2750
24450,3239,2836
24462,3288,2910
24473,3350,2971
24485,3397,3008
24497,3451,3038
24509,3500,3059
24521,3547,3063
24533,3581,3044
24544,3596,3006
24556,3579,2968
24568,3537,2927
24580,3511,2912
24592,3481,2925
24604,3472,2956
24615,3474,2992
24627,3480,3055
24639,3494,3128
24651,3493,3198
24663,3493,3256
24675,3481,3311
24686,3481,3341
24698,3447,3354
24710,3387,3346
24722,3351,3322
24734,3292,3283
24746,3249,3224
24757,3199,3137
24769,3165,3056
24781,3134,2969
24793,3095,2899
24805,3064,2848
24817,3050,2837
24828,3073,2842
24840,3104,2867
24852,3163,2928
24864,3240,2976
24876,3301,3039
24888,3332,3089
24899,3363,3129
24911,3393,3142
24923,3417,3147
24935,3411,3142
24947,3381,3132
24959,3344,3111
24970,3273,3057
24982,3219,2993
24994,3171,2928
25006,3122,2866
25018,3086,2813
25030,3030,2769
25041,2997,2768
25053,2995,2792
25065,3025,2858
25077,3075,2942
25089,3183,3041
25101,3297,3133
25112,3401,3227
25124,3478,3285
25136,3539,3324
25148,3581,3325
25160,3583,3326
25172,3583,3310
25183,3585,3305
25195,3586,3325
25207,3601,3400
25219,3633,3523
25231,3663,3681
25243,3704,3855
25254,3746,4026
25266,3773,4095
25278,3771,4095
25290,3744,4095
25302,3671,4095
25314,3614,4095
25325,3557,4095
25337,3517,4095
25349,3509,4095
25361,3509,4095
25373,3502,4007
25385,3489,3868
25396,3454,3739
25408,3397,3586
25420,3341,3440
25432,3255,3306
25444,3175,3194
25456,3085,3117
25467,3013,3067
25479,2942,3029
25491,2890,3006
25503,2847,3004
25515,2811,2995
25527,2787,3006
25538,2755,3020
25550,2739,3031
25562,2771,3037
25574,2836,3040
25586,2931,3041
25598,3044,3040
25609,3160,3029
25621,3223,2982
25633,3228,2923
25645,3142,2849
25657,3015,2772
25669,2898,2693
25680,2779,2654
25692,2706,2642
25704,2663,2653
25716,2677,2714
25728,2724,2780
25740,2791,2838
25751,2834,2908
25763,2852,2964
25775,2881,3015
25787,2910,3045
25799,2946,3052
25811,2975,3039
25822,2993,3036
25834,3009,3027
25846,3012,3015
25858,3016,3001
25870,3020,2991
25882,3027,2968
25893,3034,2953
25905,3038,2923
25917,3067,2893
25929,3116,2873
25941,3158,2844
25953,3203,2809
25964,3215,2771
25976,3240,2747
25988,3241,2718
26000,3238,2696
26012,3221,2683
26024,3179,2667
26035,3112,2680
26047,3071,2703
26059,2991,2735
26071,2906,2712
26083,2826,2655
26095,2723,2504
26106,2609,2275
26118,2509,1955
26130,2431,1587
26142,2439,1251
26154,2512,1052
26166,2641,1049
26177,2775,1231
26189,2911,1521
26201,3041,1861
26213,3124,2177
26225,3183,2427
26236,3294,2592
26248,3447,2748
26260,3607,2888
26272,3752,3016
26284,3811,3119
26296,3777,3185
26307,3667,3205
26319,3483,3153
26331,3261,3129
26343,3060,3160
26355,2874,3237
26367,2747,3356
26378,2693,3449
26390,2682,3478
26402,2710,3485
26414,2771,3411
26426,2818,3271
26438,2928,3155
26450,3067,3067
26461,3225,3039
26473,3358,3060
26485,3444,3104
26497,3477,3155
26509,3479,3211
26521,3459,3254
26532,3429,3303
26544,3405,3328
26556,3404,3351
26568,3406,3379
26580,3392,3402
26591,3371,3411
26603,3335,3430
26615,3308,3462
26627,3275,3487
26639,3235,3518
26651,3215,3564
26662,3193,3598
26674,3192,3646
26686,3201,3684
26698,3212,3731
26710,3232,3754
26722,3271,3777
26733,3330,3761
26745,3414,3743
26757,3492,3709
26769,3555,3672
26781,3602,3613
26793,3640,3558
26805,3691,3501
26816,3732,3438
26828,3739,3396
26840,3716,3340
26852,3675,3287
26864,3610,3240
26876,3523,3191
26887,3470,3151
26899,3425,3127
26911,3398,3103
26923,3352,3091
26935,3320,3084
26947,3274,3096
26958,3247,3099
26970,3225,3108
26982,3204,3109
26994,3182,3126
27006,3167,3141
27018,3143,3153
27029,3085,3157
27041,3008,3159
27053,2908,3154
27065,2819,3137
27077,2772,3140
27089,2754,3160
27100,2757,3185
27112,2794,3221
27124,2860,3262
27136,2925,3305
27148,2963,3359
27160,2998,3385
27171,3050,3411
27183,3082,3415
27195,3103,3394
27207,3104,3364
27219,3073,3314
27231,3026,3255
27242,2970,3216
27254,2935,3156
27266,2924,3133
27278,2967,3079
27290,3007,3045
27302,3059,3021
27313,3107,3008
27325,3154,3005
27337,3212,3014
27349,3253,3020
27361,3311,3042
27373,3337,3059
27384,3339,3084
27396,3331,3102
27408,3306,3116
27420,3260,3119
27432,3229,3117
27444,3200,3113
27455,3203,3111
27467,3208,3126
27479,3213,3116
27491,3221,3126
27503,3248,3127
27515,3238,3138
27526,3209,3139
27538,3192,3122
27550,3161,3122
27562,3127,3099
27574,3101,3085
27586,3074,3080
27597,3056,3069
27609,3062,3065
27621,3077,3071
27633,3073,3073
27645,3079,3090
27657,3062,3083
27668,3033,3073
27680,2978,3083
27692,2943,3068
27704,2924,3073
27716,2944,3098
27728,2973,3103
27739,3015,3133
27751,3061,3163
27763,3100,3189
27775,3130,3230
27787,3173,3283
27799,3229,3350
27810,3288,3416
27822,3348,3486
27834,3387,3540
27846,3402,3573
27858,3409,3575
27870,3407,3550
27881,3415,3527
27893,3412,3491
27905,3400,3448
27917,3384,3412
27929,3376,3388
27941,3383,3364
27952,3393,3336
27964,3392,3346
27976,3378,3334
27988,3366,3331
28000,3327,3334
28012,3283,3335
28023,3247,3335
28035,3210,3331
28047,3191,3311
28059,3196,3317
28071,3215,3308
28083,3240,3304
28094,3276,3297
28106,3301,3265
28118,3298,3207
28130,3298,3143
28142,3270,3048
28154,3241,2928
28165,3193,2808
28177,3155,2699
28189,3117,2614
28201,3083,2587
28213,3054,2595
28225,3043,2645
28236,3050,2717
28248,3093,2821
28260,3151,2940
28272,3205,3057
28284,3228,3135
28296,3241,3225
28307,3251,3279
28319,3256,3313
28331,3265,3311
28343,3254,3294
28355,3253,3273
28367,3249,3230
28379,3229,3174
28390,3200,3097
28402,3173,3034
28414,3142,2973
28426,3120,2954
28438,3088,2955
28450,3085,2995
28461,3092,3060
28473,3140,3148
28485,3215,3273
28497,3312,3403
28509,3398,3543
28520,3474,3670
28532,3517,3781
28544,3548,3863
28556,3523,3900
28568,3482,3919
28580,3407,3891
28592,3337,3820
28603,3249,3739
28615,3178,3641
28627,3134,3553
28639,3132,3478
28651,3158,3429
28663,3215,3408
28674,3283,3399
28686,3318,3402
28698,3339,3416
28710,3327,3413
28722,3314,3432
28734,3265,3433
28745,3188,3435
28757,3121,3439
28769,3082,3433
28781,3048,3458
28793,3027,3473
28805,3020,3493
28816,3060,3510
28828,3103,3543
28840,3157,3567
28852,3208,3584
28864,3262,3590
28876,3273,3577
28887,3275,3543
28899,3256,3502
28911,3228,3450
28923,3200,3408
28935,3174,3350
28947,3173,3314
28958,3154,3275
28970,3136,3233
28982,3118,3214
28994,3085,3186
29006,3026,3155
29018,2971,3129
29029,2896,3109
29041,2851,3084
29053,2813,3038
29065,2806,3019
29077,2817,3026
29089,2868,3060
29100,2935,3114
29112,3033,3201
29124,3123,3290
29136,3218,3394
29148,3310,3509
29160,3412,3595
29171,3517,3690
29183,3597,3768
29195,3636,3807
29207,3662,3817
29219,3655,3813
29231,3620,3799
29242,3556,3764
29254,3487,3724
29266,3436,3679
29278,3394,3642
29290,3350,3573
29302,3320,3520
29313,3287,3448
29325,3272,3388
29337,3239,3320
29349,3210,3270
29361,3179,3220
29373,3139,3174
29384,3118,3129
29396,3125,3110
29408,3155,3107
29420,3169,3102
29432,3192,3111
29444,3206,3121
29455,3226,3148
29467,3227,3164
29479,3225,3190
29491,3219,3196
29503,3219,3204
29515,3221,3222
29526,3226,3222
29538,3242,3230
29550,3245,3227
29562,3260,3231
29574,3257,3240
29586,3248,3235
29597,3226,3234
29609,3203,3205
29621,3212,3188
29633,3220,3170
29645,3224,3144
29657,3229,3141
29668,3217,3117
29680,3203,3113
29692,3203,3098
29704,3198,3092
29716,3170,3084
29728,3172,3094
29739,3188,3077
29751,3199,3070
29763,3205,3061
29775,3180,3056
29787,3175,3039
29799,3175,3045
29810,3175,3043
29822,3183,3053
29834,3178,3078
29846,3175,3116
29858,3185,3171
29870,3205,3233
29881,3233,3307
29893,3255,3363
29905,3288,3435
29917,3300,3500
29929,3334,3553
29941,3371,3612
29952,3410,3641
29964,3443,3662
29976,3427,3666
29988,3413,3652
