timestamp_ms,ppg1,ppg2
0,3425,3318
12,3369,3259
24,3314,3238
35,3266,3208
47,3206,3194
59,3163,3170
71,3130,3156
83,3104,3116
95,3080,3104
106,3074,3082
118,3078,3060
130,3092,3054
142,3086,3059
154,3090,3074
165,3099,3082
177,3128,3098
189,3132,3111
201,3151,3126
213,3143,3143
225,3144,3134
236,3140,3135
248,3134,3122
260,3143,3104
272,3145,3101
284,3135,3073
295,3130,3067
307,3139,3057
319,3140,3053
331,3146,3061
343,3141,3063
355,3138,3054
366,3124,3043
378,3111,3043
390,3109,3047
402,3100,3030
414,3100,3030
426,3100,3026
437,3109,3020
449,3123,3018
461,3134,3018
473,3156,3036
485,3159,3050
496,3171,3073
508,3215,3122
520,3258,3170
532,3323,3212
544,3379,3262
556,3435,3305
567,3470,3358
579,3512,3383
591,3525,3402
603,3524,3430
615,3510,3418
627,3484,3401
638,3447,3377
650,3409,3347
662,3373,3309
674,3324,3272
686,3285,3243
697,3246,3215
709,3210,3184
721,3180,3175
733,3149,3159
745,3122,3130
757,3103,3125
768,3093,3109
780,3077,3095
792,3082,3094
804,3088,3084
816,3094,3103
827,3123,3119
839,3133,3123
851,3152,3125
863,3153,3140
875,3158,3143
887,3157,3131
898,3158,3115
910,3149,3116
922,3141,3112
934,3123,3101
946,3112,3097
957,3116,3102
969,3111,3091
981,3111,3089
993,3095,3078
1005,3075,3064
1017,3061,3074
1028,3044,3063
1040,3026,3061
1052,3011,3061
1064,2994,3048
1076,3009,3055
1087,3029,3051
1099,3060,3069
1111,3115,3087
1123,3172,3123
1135,3241,3170
1147,3301,3216
1158,3364,3265
1170,3427,3304
1182,3483,3352
1194,3508,3384
1206,3522,3402
1218,3531,3420
1229,3519,3414
1241,3501,3419
1253,3468,3395
1265,3438,3364
1277,3405,3348
1288,3372,3320
1300,3336,3281
1312,3284,3245
1324,3245,3205
1336,3212,3176
1348,3167,3147
1359,3137,3141
1371,3095,3119
1383,3083,3117
1395,3091,3133
1407,3102,3121
1418,3102,3127
1430,3129,3123
1442,3143,3126
1454,3142,3126
1466,3146,3140
1478,3156,3143
1489,3161,3147
1501,3153,3143
1513,3147,3134
1525,3154,3140
1537,3160,3134
1548,3162,3134
1560,3154,3125
1572,3139,3111
1584,3142,3106
1596,3155,3101
1608,3148,3094
1619,3146,3091
1631,3134,3071
1643,3130,3076
1655,3115,3076
1667,3098,3073
1679,3099,3058
1690,3094,3053
1702,3075,3043
1714,3080,3039
1726,3097,3043
1738,3119,3053
1749,3168,3087
1761,3220,3133
1773,3293,3187
1785,3358,3247
1797,3421,3307
1809,3480,3360
1820,3527,3401
1832,3578,3429
1844,3602,3432
1856,3597,3442
1868,3579,3434
1880,3557,3420
1891,3524,3406
1903,3476,3376
1915,3427,3341
1927,3365,3320
1939,3305,3282
1951,3264,3259
1962,3216,3228
1974,3170,3197
1986,3131,3182
1998,3090,3156
2010,3064,3145
2021,3050,3148
2033,3052,3144
2045,3056,3132
2057,3082,3135
2069,3101,3143
2081,3109,3139
2092,3131,3136
2104,3150,3139
2116,3161,3142
2128,3178,3144
2140,3184,3145
2152,3189,3139
2163,3189,3148
2175,3187,3146
2187,3178,3131
2199,3176,3129
2211,3168,3129
2222,3171,3127
2234,3155,3136
2246,3133,3131
2258,3121,3137
2270,3117,3118
2282,3107,3106
2293,3092,3110
2305,3083,3091
2317,3071,3084
2329,3060,3074
2341,3033,3075
2353,3048,3076
2364,3051,3070
2376,3060,3081
2388,3076,3093
2400,3123,3113
2412,3196,3152
2423,3271,3200
2435,3360,3262
2447,3439,3315
2459,3529,3381
2471,3599,3421
2483,3670,3454
2494,3689,3457
2506,3689,3453
2518,3677,3459
2530,3641,3448
2542,3585,3430
2554,3537,3412
2565,3483,3389
2577,3432,3356
2589,3400,3335
2601,3365,3319
2613,3322,3294
2625,3291,3272
2636,3260,3253
2648,3252,3226
2660,3233,3211
2672,3203,3189
2684,3176,3170
2696,3160,3160
2707,3164,3149
2719,3175,3148
2731,3178,3146
2743,3187,3152
2755,3180,3159
2767,3180,3164
2778,3179,3170
2790,3197,3180
2802,3178,3162
2814,3185,3173
2826,3188,3166
2838,3184,3160
2849,3181,3150
2861,3170,3147
2873,3155,3130
2885,3140,3116
2897,3149,3114
2909,3121,3115
2920,3117,3112
2932,3116,3115
2944,3099,3109
2956,3102,3107
2968,3113,3099
2979,3118,3085
2991,3124,3085
3003,3134,3090
3015,3152,3079
3027,3157,3069
3039,3163,3068
3050,3161,3074
3062,3155,3087
3074,3165,3105
3086,3190,3128
3098,3224,3160
3110,3277,3211
3121,3345,3266
3133,3438,3317
3145,3529,3368
3157,3623,3420
3169,3685,3440
3181,3730,3458
3192,3746,3475
3204,3745,3473
3216,3717,3477
3228,3682,3451
3240,3644,3431
3251,3613,3423
3263,3587,3403
3275,3578,3379
3287,3545,3356
3299,3507,3339
3311,3477,3327
3322,3443,3301
3334,3412,3282
3346,3372,3247
3358,3329,3230
3370,3306,3225
3382,3283,3220
3393,3251,3220
3405,3237,3220
3417,3221,3211
3429,3221,3204
3441,3234,3197
3453,3239,3189
3464,3246,3194
3476,3251,3192
3488,3250,3198
3500,3240,3193
3512,3233,3195
3524,3224,3180
3535,3229,3183
3547,3227,3175
3559,3224,3161
3571,3227,3150
3583,3208,3141
3595,3192,3137
3606,3186,3120
3618,3172,3110
3630,3161,3101
3642,3158,3103
3654,3140,3096
3665,3130,3086
3677,3135,3105
3689,3140,3115
3701,3132,3112
3713,3119,3111
3725,3123,3106
3736,3118,3103
3748,3129,3092
3760,3137,3082
3772,3139,3093
3784,3127,3097
3796,3123,3109
3807,3126,3101
3819,3136,3112
3831,3147,3133
3843,3179,3154
3855,3220,3181
3867,3288,3227
3878,3370,3277
3890,3457,3343
3902,3562,3402
3914,3654,3458
3926,3731,3504
3938,3780,3525
3949,3800,3540
3961,3806,3548
3973,3780,3556
3985,3737,3545
3997,3692,3537
4009,3645,3533
4020,3588,3488
4032,3527,3457
4044,3481,3432
4056,3447,3414
4068,3410,3397
4079,3373,3379
4091,3331,3357
4103,3308,3338
4115,3280,3313
4127,3250,3309
4139,3247,3282
4150,3232,3288
4162,3223,3290
4174,3218,3294
4186,3214,3290
4198,3212,3289
4210,3213,3287
4221,3208,3288
4233,3180,3280
4245,3182,3268
4257,3184,3269
4269,3184,3256
4281,3165,3245
4292,3162,3219
4304,3153,3199
4316,3158,3196
4328,3148,3180
4340,3159,3189
4352,3146,3171
4363,3127,3164
4375,3112,3171
4387,3109,3164
4399,3103,3172
4411,3087,3181
4423,3072,3183
4434,3062,3177
4446,3051,3167
4458,3053,3165
4470,3056,3164
4482,3064,3157
4493,3062,3163
4505,3064,3159
4517,3052,3153
4529,3053,3155
4541,3057,3161
4553,3062,3165
4564,3042,3167
4576,3035,3164
4588,3032,3160
4600,3039,3160
4612,3048,3168
4624,3080,3185
4635,3121,3234
4647,3179,3288
4659,3241,3339
4671,3321,3401
4683,3410,3459
4695,3489,3517
4706,3554,3554
4718,3583,3586
4730,3601,3600
4742,3601,3613
4754,3575,3587
4765,3550,3579
4777,3515,3566
4789,3478,3550
4801,3436,3533
4813,3387,3515
4825,3346,3495
4836,3295,3460
4848,3242,3426
4860,3179,3407
4872,3132,3387
4884,3113,3369
4896,3121,3345
4907,3099,3326
4919,3101,3317
4931,3098,3311
4943,3109,3283
4955,3112,3279
4967,3107,3261
4978,3108,3254
4990,3110,3255
5002,3107,3247
5014,3128,3251
5026,3130,3257
5038,3132,3248
5049,3127,3239
5061,3117,3238
5073,3104,3230
5085,3090,3224
5097,3076,3219
5109,3061,3221
5120,3061,3203
5132,3059,3209
5144,3061,3202
5156,3051,3211
5168,3032,3207
5180,3026,3201
5191,3028,3201
5203,3045,3188
5215,3032,3184
5227,3039,3173
5239,3023,3173
5250,3032,3170
5262,3038,3169
5274,3032,3153
5286,3033,3155
5298,3019,3144
5310,3002,3122
5321,3003,3108
5333,3002,3107
5345,3018,3120
5357,3026,3135
5369,3059,3163
5381,3091,3189
5392,3150,3241
5404,3194,3301
5416,3258,3362
5428,3316,3426
5440,3378,3485
5452,3440,3535
5463,3477,3579
5475,3488,3592
5487,3502,3594
5499,3480,3584
5511,3450,3565
5523,3407,3544
5534,3367,3515
5546,3316,3482
5558,3264,3468
5570,3224,3437
5582,3181,3411
5593,3171,3379
5605,3152,3351
5617,3128,3316
5629,3117,3296
5641,3101,3264
5653,3090,3238
5664,3085,3230
5676,3094,3218
5688,3087,3214
5700,3070,3218
5712,3066,3219
5724,3057,3217
5735,3057,3217
5747,3072,3224
5759,3086,3240
5771,3091,3241
5783,3100,3244
5795,3113,3236
5806,3121,3232
5818,3129,3224
5830,3125,3205
5842,3125,3188
5854,3132,3199
5866,3137,3191
5877,3133,3170
5889,3114,3163
5901,3109,3149
5913,3079,3145
5925,3054,3121
5937,3034,3125
5948,3016,3103
5960,3011,3094
5972,2999,3095
5984,3000,3089
5996,3013,3073
6007,3025,3083
6019,3034,3089
6031,3045,3089
6043,3044,3093
6055,3026,3090
6067,3039,3104
6078,3046,3115
6090,3058,3133
6102,3095,3170
6114,3136,3212
6126,3193,3272
6138,3252,3336
6149,3315,3404
6161,3372,3449
6173,3415,3488
6185,3451,3517
6197,3477,3531
6209,3482,3535
6220,3465,3521
6232,3437,3504
6244,3400,3478
6256,3330,3446
6268,3271,3403
6280,3226,3372
6291,3186,3343
6303,3154,3326
6315,3124,3294
6327,3097,3274
6339,3071,3227
6351,3057,3211
6362,3038,3190
6374,3034,3170
6386,3049,3170
6398,3060,3163
6410,3084,3157
6421,3111,3160
6433,3116,3162
6445,3128,3172
6457,3147,3176
6469,3144,3191
6481,3137,3190
6492,3139,3194
6504,3123,3186
6516,3117,3170
6528,3117,3161
6540,3110,3153
6552,3111,3146
6563,3099,3115
6575,3093,3107
6587,3085,3104
6599,3076,3085
6611,3066,3085
6623,3061,3069
6634,3073,3065
6646,3072,3069
6658,3064,3060
6670,3062,3058
6682,3055,3063
6694,3059,3070
6705,3058,3073
6717,3049,3075
6729,3050,3084
6741,3053,3083
6753,3070,3093
6764,3079,3105
6776,3114,3122
6788,3157,3169
6800,3210,3213
6812,3264,3268
6824,3340,3333
6835,3394,3392
6847,3446,3432
6859,3479,3457
6871,3485,3479
6883,3479,3486
6895,3448,3468
6906,3404,3451
6918,3357,3429
6930,3321,3413
6942,3293,3381
6954,3272,3363
6966,3252,3317
6977,3237,3287
6989,3208,3262
7001,3183,3223
7013,3151,3203
7025,3134,3170
7037,3133,3154
7048,3129,3138
7060,3120,3117
7072,3115,3122
7084,3126,3112
7096,3131,3112
7108,3125,3115
7119,3130,3105
7131,3126,3110
7143,3102,3136
7155,3098,3145
7167,3104,3160
7179,3100,3169
7190,3090,3161
7202,3091,3159
7214,3097,3136
7226,3108,3119
7238,3114,3111
7249,3113,3095
7261,3126,3089
7273,3135,3080
7285,3119,3076
7297,3101,3049
7309,3084,3051
7320,3069,3038
7332,3054,3047
7344,3040,3036
7356,3046,3048
7368,3028,3046
7380,3033,3051
7391,3024,3044
7403,3023,3050
7415,3020,3058
7427,3031,3049
7439,3046,3052
7451,3068,3055
7462,3100,3082
7474,3134,3119
7486,3213,3156
7498,3277,3212
7510,3329,3267
7521,3402,3320
7533,3463,3370
7545,3510,3405
7557,3520,3430
7569,3514,3454
7581,3491,3461
7592,3450,3457
7604,3417,3444
7616,3379,3425
7628,3352,3402
7640,3331,3377
7652,3304,3343
7663,3286,3329
7675,3279,3300
7687,3259,3266
7699,3231,3243
7711,3190,3207
7723,3173,3191
7734,3142,3164
7746,3124,3139
7758,3112,3125
7770,3109,3103
7782,3113,3090
7794,3130,3095
7805,3140,3086
7817,3150,3080
7829,3145,3091
7841,3151,3108
7853,3148,3116
7864,3146,3122
7876,3152,3129
7888,3139,3127
7900,3131,3125
7912,3132,3117
7924,3136,3115
7935,3133,3101
7947,3137,3098
7959,3147,3102
7971,3151,3082
7983,3145,3076
7995,3142,3076
8006,3128,3063
8018,3117,3051
8030,3094,3048
8042,3081,3037
8054,3067,3047
8066,3059,3048
8077,3061,3050
8089,3054,3049
8101,3069,3051
8113,3069,3047
8125,3074,3040
8137,3076,3040
8148,3081,3038
8160,3089,3037
8172,3104,3054
8184,3109,3056
8196,3123,3076
8208,3137,3101
8219,3152,3140
8231,3209,3184
8243,3263,3246
8255,3321,3285
8267,3381,3342
8278,3435,3387
8290,3473,3420
8302,3487,3444
8314,3501,3437
8326,3489,3426
8338,3472,3410
8349,3444,3380
8361,3421,3364
8373,3402,3343
8385,3389,3317
8397,3359,3287
8409,3335,3265
8420,3312,3246
8432,3292,3233
8444,3268,3221
8456,3238,3210
8468,3211,3185
8480,3193,3170
8491,3170,3158
8503,3135,3140
8515,3112,3134
8527,3104,3131
8539,3109,3130
8551,3123,3136
8562,3141,3132
8574,3149,3136
8586,3138,3130
8598,3145,3130
8610,3151,3133
8622,3157,3128
8633,3154,3125
8645,3155,3118
8657,3146,3095
8669,3134,3094
8681,3116,3087
8692,3107,3078
8704,3099,3071
8716,3072,3058
8728,3067,3073
8740,3068,3075
8752,3060,3070
8763,3059,3061
8775,3060,3059
8787,3057,3042
8799,3073,3048
8811,3082,3040
8823,3099,3044
8834,3101,3041
8846,3095,3033
8858,3084,3041
8870,3065,3048
8882,3060,3046
8894,3069,3046
8905,3072,3057
8917,3086,3060
8929,3103,3082
8941,3121,3102
8953,3162,3142
8964,3211,3196
8976,3272,3239
8988,3326,3279
9000,3368,3321
9012,3415,3358
9024,3446,3386
9035,3457,3406
9047,3464,3408
9059,3472,3422
9071,3464,3414
9083,3451,3405
9095,3448,3384
9106,3420,3350
9118,3398,3333
9130,3378,3310
9142,3351,3281
9154,3319,3243
9166,3286,3225
9177,3269,3203
9189,3251,3187
9201,3237,3175
9213,3223,3154
9225,3201,3144
9236,3196,3144
9248,3184,3133
9260,3172,3132
9272,3158,3139
9284,3136,3154
9296,3141,3153
9307,3156,3151
9319,3163,3170
9331,3169,3170
9343,3169,3169
9355,3185,3162
9367,3198,3150
9378,3212,3142
9390,3226,3128
9402,3247,3123
9414,3255,3121
9426,3246,3102
9438,3230,3089
9449,3225,3088
9461,3203,3083
9473,3185,3083
9485,3163,3082
9497,3146,3095
9509,3127,3102
9520,3114,3097
9532,3101,3107
9544,3100,3091
9556,3095,3111
9568,3088,3108
9579,3093,3101
9591,3090,3098
9603,3095,3103
9615,3096,3097
9627,3096,3091
9639,3099,3084
9650,3122,3108
9662,3150,3118
9674,3202,3162
9686,3265,3197
9698,3316,3252
9710,3388,3309
9721,3444,3354
9733,3486,3385
9745,3522,3415
9757,3556,3426
9769,3563,3432
9781,3553,3420
9792,3542,3402
9804,3500,3391
9816,3456,3362
9828,3429,3335
9840,3406,3324
9852,3385,3307
9863,3358,3287
9875,3339,3274
9887,3310,3248
9899,3275,3216
9911,3226,3200
9922,3199,3187
9934,3175,3177
9946,3168,3180
9958,3157,3174
9970,3153,3173
9982,3156,3172
9993,3175,3178
10005,3200,3175
10017,3217,3169
10029,3236,3156
10041,3251,3157
10053,3255,3160
10064,3258,3156
10076,3272,3151
10088,3263,3144
10100,3252,3146
10112,3217,3149
10124,3203,3142
10135,3185,3148
10147,3169,3150
10159,3149,3142
10171,3149,3139
10183,3142,3139
10195,3135,3134
10206,3120,3126
10218,3114,3116
10230,3120,3112
10242,3117,3107
10254,3121,3080
10266,3121,3083
10277,3111,3074
10289,3115,3067
10301,3130,3064
10313,3132,3080
10325,3148,3092
10337,3158,3110
10348,3194,3139
10360,3237,3189
10372,3292,3232
10384,3354,3275
10396,3428,3328
10408,3487,3377
10419,3547,3403
10431,3582,3416
10443,3607,3441
10455,3619,3453
10467,3602,3440
10478,3578,3431
10490,3527,3410
10502,3487,3390
10514,3446,3363
10526,3405,3348
10538,3370,3315
10549,3325,3298
10561,3292,3282
10573,3262,3257
10585,3243,3233
10597,3236,3219
10609,3228,3209
10620,3214,3202
10632,3206,3197
10644,3206,3189
10656,3194,3183
10668,3201,3188
10680,3201,3189
10691,3197,3198
10703,3203,3204
10715,3205,3197
10727,3208,3192
10739,3233,3194
10751,3229,3186
10762,3234,3181
10774,3227,3169
10786,3216,3165
10798,3225,3166
10810,3212,3157
10822,3204,3148
10833,3186,3139
10845,3176,3129
10857,3153,3109
10869,3140,3109
10881,3130,3108
10893,3120,3108
10904,3120,3113
10916,3121,3111
10928,3141,3126
10940,3151,3118
10952,3143,3123
10964,3147,3126
10975,3150,3130
10987,3143,3123
10999,3149,3129
11011,3178,3147
11023,3227,3184
11035,3281,3219
11046,3347,3265
11058,3415,3326
11070,3475,3371
11082,3531,3408
11094,3572,3443
11106,3604,3464
11117,3624,3488
11129,3620,3498
11141,3603,3485
11153,3572,3463
11165,3548,3451
11177,3513,3425
11188,3484,3393
11200,3457,3366
11212,3421,3344
11224,3396,3314
11236,3348,3287
11247,3310,3262
11259,3277,3245
11271,3237,3223
11283,3196,3199
11295,3174,3198
11307,3156,3191
11318,3156,3179
11330,3155,3180
11342,3165,3172
11354,3172,3193
11366,3191,3207
11378,3216,3218
11389,3235,3217
11401,3241,3213
11413,3228,3212
11425,3223,3205
11437,3228,3198
11449,3222,3174
11460,3215,3168
11472,3203,3154
11484,3210,3147
11496,3204,3143
11508,3212,3131
11520,3205,3120
11531,3193,3126
11543,3162,3127
11555,3129,3129
11567,3104,3132
11579,3093,3143
11591,3091,3142
11602,3109,3153
11614,3112,3143
11626,3126,3140
11638,3144,3134
11650,3179,3141
11662,3200,3156
11673,3238,3174
11685,3277,3201
11697,3340,3237
11709,3406,3293
11721,3460,3350
11733,3521,3408
11744,3572,3455
11756,3609,3487
11768,3632,3507
11780,3638,3503
11792,3631,3500
11804,3600,3474
11815,3561,3453
11827,3524,3432
11839,3485,3406
11851,3453,3382
11863,3409,3367
11875,3379,3342
11886,3354,3330
11898,3322,3309
11910,3298,3283
11922,3253,3253
11934,3222,3225
11946,3205,3209
11957,3206,3192
11969,3195,3194
11981,3181,3179
11993,3184,3176
12005,3176,3186
12016,3171,3185
12028,3187,3191
12040,3199,3189
12052,3191,3196
12064,3198,3195
12076,3197,3206
12087,3194,3193
12099,3173,3192
12111,3164,3173
12123,3162,3176
12135,3163,3171
12147,3154,3157
12158,3155,3168
12170,3159,3158
12182,3150,3151
12194,3147,3143
12206,3153,3140
12218,3163,3141
12229,3155,3126
12241,3155,3127
12253,3150,3120
12265,3149,3111
12277,3138,3109
12288,3125,3088
12300,3126,3098
12312,3128,3119
12324,3154,3137
12336,3190,3187
12348,3259,3222
12359,3334,3282
12371,3420,3334
12383,3498,3384
12395,3557,3431
12407,3624,3469
12419,3676,3497
12430,3709,3516
12442,3703,3522
12454,3701,3506
12466,3676,3494
12478,3630,3482
12490,3582,3462
12501,3521,3434
12513,3475,3414
12525,3434,3403
12537,3398,3382
12549,3361,3373
12561,3326,3363
12572,3293,3336
12584,3273,3311
12596,3228,3283
12608,3193,3256
12620,3155,3232
12632,3135,3217
12643,3122,3216
12655,3113,3210
12667,3112,3217
12679,3118,3213
12691,3128,3210
12703,3134,3212
12714,3152,3215
12726,3168,3208
12738,3177,3214
12750,3179,3217
12762,3175,3197
12774,3164,3197
12785,3148,3179
12797,3136,3162
12809,3148,3154
12821,3144,3157
12833,3143,3144
12845,3129,3142
12856,3124,3131
12868,3120,3123
12880,3119,3129
12892,3119,3120
12904,3125,3121
12915,3116,3118
12927,3102,3121
12939,3101,3121
12951,3097,3120
12963,3109,3110
12975,3106,3113
12987,3119,3110
12998,3137,3103
13010,3140,3108
13022,3144,3113
13034,3166,3134
13046,3209,3165
13057,3260,3214
13069,3334,3276
13081,3412,3333
13093,3488,3401
13105,3552,3457
13117,3592,3491
13128,3632,3533
13140,3646,3547
13152,3645,3569
13164,3634,3574
13176,3606,3579
13188,3571,3556
13199,3530,3527
13211,3478,3507
13223,3427,3480
13235,3396,3447
13247,3359,3424
13259,3318,3386
13270,3290,3373
13282,3251,3346
13294,3239,3330
13306,3191,3300
13318,3156,3273
13330,3129,3256
13341,3107,3236
13353,3105,3224
13365,3115,3216
13377,3118,3226
13389,3122,3213
13400,3117,3218
13412,3132,3229
13424,3135,3230
13436,3136,3217
13448,3129,3217
13460,3119,3201
13471,3107,3199
13483,3110,3185
13495,3100,3179
13507,3093,3166
13519,3076,3159
13531,3078,3151
13542,3074,3158
13554,3080,3151
13566,3071,3153
13578,3093,3144
13590,3113,3130
13602,3131,3113
13613,3147,3109
13625,3152,3104
13637,3151,3099
13649,3139,3095
13661,3120,3112
13673,3116,3117
13684,3125,3122
13696,3122,3126
13708,3114,3130
13720,3117,3121
13732,3108,3105
13744,3095,3081
13755,3087,3073
13767,3087,3086
13779,3081,3101
13791,3088,3134
13803,3124,3179
13815,3175,3237
13826,3261,3297
13838,3358,3360
13850,3449,3409
13862,3516,3463
13874,3565,3487
13886,3574,3514
13897,3578,3510
13909,3554,3520
13921,3518,3512
13933,3467,3502
13945,3420,3498
13957,3376,3484
13968,3340,3460
13980,3280,3427
13992,3234,3413
14004,3195,3380
14016,3151,3359
14028,3130,3342
14039,3104,3310
14051,3084,3283
14063,3077,3268
14075,3076,3230
14087,3068,3217
14099,3061,3185
14110,3071,3196
14122,3056,3179
14134,3057,3164
14146,3060,3163
14158,3069,3174
14169,3079,3176
14181,3088,3185
14193,3103,3185
14205,3096,3191
14217,3107,3192
14229,3109,3187
14240,3109,3193
14252,3105,3182
14264,3107,3176
14276,3102,3167
14288,3073,3154
14300,3044,3143
14311,3039,3144
14323,3035,3129
14335,3025,3125
14347,3043,3122
14359,3045,3113
14371,3046,3108
14382,3037,3095
14394,3039,3089
14406,3042,3092
14418,3046,3081
14430,3054,3083
14442,3060,3091
14453,3061,3097
14465,3038,3094
14477,3011,3095
14489,2986,3111
14501,2982,3100
14512,3003,3112
14524,3022,3121
14536,3043,3128
14548,3069,3145
14560,3090,3171
14572,3147,3209
14583,3217,3256
14595,3281,3308
14607,3355,3365
14619,3415,3411
14631,3476,3461
14643,3509,3481
14654,3524,3487
14666,3514,3488
14678,3486,3480
14690,3471,3479
14702,3438,3467
14714,3395,3438
14725,3331,3409
14737,3285,3388
14749,3245,3362
14761,3208,3333
14773,3173,3302
14785,3139,3281
14796,3115,3267
14808,3100,3259
14820,3068,3244
14832,3050,3235
14844,3021,3239
14856,3013,3237
14867,3011,3243
14879,3033,3242
14891,3058,3244
14903,3069,3230
14915,3094,3209
14927,3129,3201
14938,3142,3191
14950,3144,3186
14962,3126,3176
14974,3122,3170
14986,3109,3165
14998,3085,3162
15009,3080,3137
15021,3080,3134
15033,3080,3143
15045,3074,3131
15057,3076,3143
15069,3053,3139
15080,3052,3148
15092,3053,3134
15104,3052,3131
15116,3042,3113
15128,3039,3108
15140,3048,3101
15151,3050,3092
15163,3046,3095
15175,3041,3086
15187,3029,3086
15199,3017,3091
15210,3015,3078
15222,3038,3095
15234,3052,3095
15246,3077,3108
15258,3094,3109
15270,3104,3126
15281,3129,3154
15293,3160,3190
15305,3209,3229
15317,3261,3282
15329,3335,3324
15341,3391,3362
15352,3433,3402
15364,3464,3438
15376,3491,3450
15388,3517,3452
15400,3512,3441
15412,3496,3441
15423,3461,3433
15435,3393,3409
15447,3333,3383
15459,3272,3370
15471,3215,3346
15483,3172,3331
15494,3145,3300
15506,3125,3268
15518,3099,3248
15530,3069,3223
15542,3058,3195
15554,3051,3175
15565,3045,3166
15577,3063,3165
15589,3057,3167
15601,3060,3176
15613,3066,3165
15625,3065,3170
15636,3092,3181
15648,3119,3190
15660,3133,3205
15672,3120,3199
15684,3135,3193
15696,3135,3200
15707,3133,3186
15719,3132,3185
15731,3125,3170
15743,3124,3164
15755,3118,3156
15767,3098,3134
15778,3078,3139
15790,3060,3111
15802,3029,3110
15814,3024,3117
15826,3028,3118
15838,3031,3115
15849,3038,3101
15861,3039,3100
15873,3036,3110
15885,3037,3106
15897,3023,3104
15909,3016,3102
15920,3009,3106
15932,3019,3115
15944,3038,3125
15956,3065,3161
15968,3100,3204
15980,3156,3253
15991,3219,3301
16003,3282,3351
16015,3356,3399
16027,3420,3433
16039,3472,3459
16050,3508,3477
16062,3531,3480
16074,3533,3454
16086,3528,3439
16098,3520,3415
16110,3485,3384
16121,3443,3363
16133,3400,3343
16145,3346,3324
16157,3310,3298
16169,3270,3285
16181,3229,3256
16192,3193,3242
16204,3155,3226
16216,3133,3190
16228,3104,3178
16240,3087,3174
16252,3072,3165
16263,3079,3170
16275,3086,3181
16287,3099,3181
16299,3109,3188
16311,3114,3193
16323,3118,3188
16334,3132,3200
16346,3142,3211
16358,3156,3208
16370,3155,3201
16382,3151,3192
16394,3144,3183
16405,3135,3171
16417,3125,3162
16429,3104,3147
16441,3110,3149
16453,3101,3138
16465,3108,3140
16476,3091,3138
16488,3083,3129
16500,3087,3121
16512,3084,3108
16524,3090,3104
16536,3078,3109
16547,3070,3099
16559,3070,3100
16571,3066,3112
16583,3070,3123
16595,3081,3139
16607,3104,3158
16618,3145,3203
16630,3201,3247
16642,3280,3307
16654,3344,3352
16666,3424,3378
16678,3493,3424
16689,3549,3445
16701,3573,3451
16713,3590,3457
16725,3581,3446
16737,3567,3452
16749,3541,3435
16760,3497,3413
16772,3449,3381
16784,3390,3359
16796,3332,3331
16808,3283,3316
16820,3243,3293
16831,3205,3266
16843,3183,3250
16855,3152,3230
16867,3129,3213
16879,3107,3200
16891,3109,3187
16902,3108,3178
16914,3104,3164
16926,3114,3156
16938,3128,3165
16950,3137,3171
16962,3140,3172
16973,3146,3182
16985,3136,3186
16997,3140,3195
17009,3147,3207
17021,3138,3198
17033,3149,3193
17044,3144,3191
17056,3139,3178
17068,3131,3166
17080,3127,3156
17092,3111,3153
17104,3129,3146
17115,3124,3143
17127,3132,3138
17139,3133,3131
17151,3140,3123
17163,3133,3117
17175,3138,3103
17186,3139,3103
17198,3131,3106
17210,3114,3113
17222,3099,3104
17234,3094,3112
17246,3098,3115
17257,3117,3132
17269,3159,3172
17281,3206,3212
17293,3269,3270
17305,3341,3322
17317,3408,3384
17328,3465,3440
17340,3502,3472
17352,3520,3505
17364,3550,3519
17376,3561,3524
17388,3554,3499
17399,3547,3477
17411,3525,3453
17423,3499,3430
17435,3478,3397
17447,3445,3378
17459,3415,3359
17470,3385,3345
17482,3336,3320
17494,3293,3303
17506,3257,3281
17518,3220,3268
17530,3195,3241
17541,3177,3226
17553,3170,3207
17565,3167,3191
17577,3177,3192
17589,3187,3187
17601,3189,3201
17612,3179,3203
17624,3178,3208
17636,3175,3208
17648,3172,3206
17660,3168,3196
17672,3170,3191
17683,3169,3177
17695,3172,3178
17707,3157,3157
17719,3141,3167
17731,3129,3152
17743,3134,3152
17754,3125,3137
17766,3120,3130
17778,3119,3130
17790,3106,3124
17802,3093,3124
17814,3087,3119
17825,3101,3113
17837,3102,3102
17849,3108,3107
17861,3114,3108
17873,3121,3094
17884,3110,3094
17896,3111,3090
17908,3115,3085
17920,3103,3083
17932,3111,3093
17944,3119,3119
17956,3152,3152
17967,3196,3197
17979,3248,3237
17991,3307,3290
18003,3382,3366
18015,3442,3416
18027,3510,3448
18038,3565,3484
18050,3623,3514
18062,3638,3521
18074,3647,3526
18086,3639,3514
18098,3615,3504
18109,3580,3482
18121,3542,3449
18133,3506,3426
18145,3473,3418
18157,3440,3404
18169,3404,3385
18180,3373,3371
18192,3346,3353
18204,3317,3321
18216,3285,3312
18228,3255,3283
18240,3226,3264
18251,3192,3241
18263,3170,3234
18275,3151,3229
18287,3143,3236
18299,3149,3226
18311,3150,3208
18322,3161,3214
18334,3176,3216
18346,3197,3221
18358,3211,3224
18370,3219,3229
18382,3226,3227
18393,3233,3199
18405,3225,3192
18417,3224,3184
18429,3200,3191
18441,3187,3184
18453,3174,3174
18464,3160,3166
18476,3150,3159
18488,3139,3150
18500,3132,3144
18512,3108,3118
18524,3105,3111
18535,3102,3103
18547,3112,3117
18559,3112,3116
18571,3122,3113
18583,3127,3123
18595,3120,3133
18606,3123,3123
18618,3113,3122
18630,3102,3123
18642,3102,3127
18654,3114,3135
18666,3119,3117
18677,3121,3111
18689,3140,3109
18701,3173,3134
18713,3205,3157
18725,3270,3202
18737,3353,3268
18748,3426,3334
18760,3487,3393
18772,3554,3446
18784,3595,3496
18796,3639,3534
18808,3661,3556
18819,3661,3576
18831,3663,3579
18843,3650,3561
18855,3622,3547
18867,3604,3511
18879,3569,3492
18890,3537,3454
18902,3510,3427
18914,3481,3413
18926,3434,3397
18938,3373,3367
18949,3320,3349
18961,3284,3335
18973,3281,3318
18985,3269,3287
18997,3276,3265
19009,3266,3256
19020,3263,3233
19032,3237,3211
19044,3241,3206
19056,3254,3205
19068,3261,3209
19080,3257,3201
19091,3241,3203
19103,3233,3201
19115,3236,3197
19127,3247,3198
19139,3257,3204
19151,3253,3183
19162,3250,3186
19174,3245,3180
19186,3231,3171
19198,3203,3171
19210,3186,3176
19222,3150,3157
19234,3135,3160
19245,3110,3149
19257,3096,3147
19269,3087,3138
19281,3103,3125
19293,3110,3113
19305,3124,3101
19316,3127,3090
19328,3145,3092
19340,3138,3087
19352,3146,3099
19364,3152,3105
19376,3131,3098
19387,3136,3119
19399,3134,3146
19411,3125,3141
19423,3125,3149
19435,3133,3152
19447,3148,3164
19458,3195,3191
19470,3253,3234
19482,3333,3277
19494,3416,3333
19506,3497,3394
19518,3565,3434
19529,3627,3472
19541,3677,3509
19553,3702,3528
19565,3726,3548
19577,3715,3546
19589,3693,3522
19600,3671,3507
19612,3641,3484
19624,3608,3471
19636,3583,3453
19648,3557,3422
19660,3521,3395
19671,3482,3368
19683,3451,3336
19695,3428,3305
19707,3395,3267
19719,3358,3248
19731,3330,3229
19742,3299,3216
19754,3287,3215
19766,3281,3199
19778,3275,3196
19790,3270,3187
19802,3266,3180
19813,3293,3184
19825,3298,3191
19837,3317,3192
19849,3330,3191
19861,3321,3199
19873,3314,3206
19884,3297,3189
19896,3291,3186
19908,3271,3167
19920,3253,3165
19932,3223,3144
19944,3207,3134
19955,3187,3126
19967,3182,3120
19979,3170,3106
19991,3163,3105
20003,3155,3087
20015,3156,3086
20026,3155,3088
20038,3142,3085
20050,3148,3102
20062,3149,3100
20074,3147,3113
20086,3150,3125
20097,3147,3119
20109,3140,3124
20121,3148,3116
20133,3140,3110
20145,3137,3102
20157,3151,3101
20168,3154,3116
20180,3178,3139
20192,3222,3177
20204,3292,3220
20216,3376,3261
20228,3457,3308
20239,3541,3371
20251,3627,3413
20263,3709,3453
20275,3780,3489
20287,3827,3510
20299,3849,3521
20310,3855,3510
20322,3833,3493
20334,3789,3467
20346,3732,3435
20358,3686,3417
20370,3636,3392
20381,3574,3354
20393,3514,3315
20405,3456,3284
20417,3418,3257
20429,3383,3234
20441,3358,3208
20452,3320,3182
20464,3315,3183
20476,3307,3170
20488,3298,3164
20500,3298,3171
20512,3300,3179
20523,3303,3192
20535,3297,3201
20547,3296,3195
20559,3300,3199
20571,3312,3207
20583,3309,3189
20594,3303,3189
20606,3300,3176
20618,3290,3163
20630,3275,3148
20642,3246,3147
20654,3215,3142
20665,3192,3130
20677,3171,3129
20689,3166,3114
20701,3161,3116
20713,3162,3115
20725,3169,3109
20736,3178,3110
20748,3198,3111
20760,3199,3104
20772,3196,3089
20784,3196,3097
20796,3184,3086
20808,3176,3078
20819,3172,3088
20831,3155,3095
20843,3148,3097
20855,3137,3114
20867,3145,3129
20879,3188,3165
20890,3229,3199
20902,3290,3227
20914,3363,3265
20926,3444,3305
20938,3522,3344
20950,3612,3370
20961,3675,3394
20973,3738,3400
20985,3776,3412
20997,3777,3418
21009,3760,3417
21021,3720,3407
21032,3670,3403
21044,3608,3386
21056,3539,3367
21068,3472,3344
21080,3411,3324
21092,3357,3298
21103,3307,3274
21115,3271,3241
21127,3237,3211
21139,3218,3189
21151,3205,3171
21163,3197,3163
21174,3189,3155
21186,3190,3148
21198,3206,3145
21210,3210,3163
21222,3209,3164
21234,3209,3166
21245,3220,3179
21257,3221,3174
21269,3240,3184
21281,3235,3186
21293,3219,3177
21305,3204,3163
21316,3191,3156
21328,3174,3146
21340,3152,3120
21352,3132,3123
21364,3105,3120
21376,3094,3113
21387,3090,3114
21399,3079,3100
21411,3076,3089
21423,3090,3087
21435,3090,3079
21447,3081,3070
21458,3068,3068
21470,3066,3059
21482,3060,3055
21494,3051,3062
21506,3060,3071
21518,3074,3100
21529,3093,3114
21541,3143,3140
21553,3213,3185
21565,3282,3234
21577,3353,3289
21589,3431,3340
21600,3520,3382
21612,3575,3405
21624,3621,3427
21636,3637,3425
21648,3631,3432
21660,3619,3416
21671,3582,3382
21683,3545,3376
21695,3492,3349
21707,3448,3333
21719,3386,3293
21731,3331,3285
21742,3283,3266
21754,3237,3244
21766,3191,3226
21778,3141,3206
21790,3097,3182
21802,3077,3174
21813,3057,3153
21825,3065,3153
21837,3075,3155
21849,3092,3156
21861,3115,3156
21873,3135,3154
21884,3150,3152
21896,3163,3165
21908,3168,3149
21920,3176,3144
21932,3178,3150
21944,3181,3142
21955,3174,3144
21967,3170,3136
21979,3166,3127
21991,3154,3111
22003,3134,3110
22015,3113,3114
22026,3084,3105
22038,3064,3107
22050,3048,3102
22062,3033,3094
22074,3027,3085
22086,3021,3097
22097,3017,3096
22109,3019,3109
22121,3025,3111
22133,3022,3116
22145,3015,3115
22157,3013,3096
22168,3013,3108
22180,3034,3114
22192,3095,3130
22204,3163,3165
22216,3228,3198
22228,3308,3260
22239,3374,3312
22251,3445,3344
22263,3507,3377
22275,3565,3399
22287,3591,3422
22299,3599,3427
22310,3560,3421
22322,3532,3404
22334,3485,3378
22346,3425,3371
22358,3391,3355
22370,3332,3344
22381,3304,3325
22393,3269,3299
22405,3239,3278
22417,3206,3261
22429,3183,3252
22441,3147,3242
22452,3129,3224
22464,3097,3196
22476,3077,3176
22488,3075,3165
22500,3089,3168
22512,3103,3172
22523,3102,3173
22535,3102,3183
22547,3104,3183
22559,3105,3199
22571,3104,3192
22583,3106,3187
22594,3112,3185
22606,3112,3177
22618,3100,3157
22630,3086,3149
22642,3069,3143
22654,3050,3150
22665,3038,3147
22677,3013,3138
22689,2996,3124
22701,2978,3122
22713,2966,3120
22725,2961,3110
22736,2967,3095
22748,2987,3087
22760,3004,3085
22772,3028,3084
22784,3056,3097
22796,3065,3097
22807,3062,3100
22819,3059,3093
22831,3049,3104
22843,3042,3109
22855,3037,3110
22867,3046,3130
22878,3052,3144
22890,3085,3170
22902,3131,3212
22914,3192,3269
22926,3257,3318
22938,3320,3357
22950,3389,3403
22961,3442,3441
22973,3478,3464
22985,3492,3470
22997,3493,3472
23009,3468,3475
23021,3444,3458
23032,3407,3452
23044,3360,3423
23056,3307,3409
23068,3256,3390
23080,3210,3372
23092,3179,3356
23103,3144,3332
23115,3122,3315
23127,3106,3298
23139,3093,3272
23151,3085,3249
23163,3092,3210
23174,3094,3195
23186,3101,3180
23198,3102,3184
23210,3107,3193
23222,3101,3188
23234,3098,3185
23245,3084,3188
23257,3083,3200
23269,3086,3200
23281,3081,3199
23293,3080,3196
23305,3088,3207
23316,3092,3219
23328,3089,3215
23340,3070,3207
23352,3069,3204
23364,3043,3191
23376,3042,3170
23387,3040,3163
23399,3032,3155
23411,3034,3143
23423,3043,3148
23435,3034,3137
23447,3029,3123
23458,3026,3117
23470,3035,3125
23482,3028,3123
23494,3025,3136
23506,3023,3143
23518,3039,3139
23529,3046,3133
23541,3045,3126
23553,3056,3131
23565,3054,3132
23577,3055,3139
23589,3037,3132
23600,3012,3136
23612,3006,3143
23624,3007,3136
23636,3029,3157
23648,3043,3164
23660,3076,3197
23671,3125,3237
23683,3183,3276
23695,3256,3340
23707,3322,3387
23719,3368,3428
23731,3417,3462
23742,3430,3479
23754,3452,3497
23766,3450,3500
23778,3441,3493
23790,3415,3477
23802,3388,3463
23813,3343,3444
23825,3308,3430
23837,3275,3425
23849,3249,3417
23861,3206,3397
23873,3165,3379
23884,3125,3355
23896,3099,3328
23908,3087,3305
23920,3074,3283
23932,3075,3277
23944,3070,3256
23955,3079,3254
23967,3086,3251
23979,3097,3248
23991,3106,3261
24003,3116,3270
24015,3120,3264
24026,3115,3260
24038,3122,3269
24050,3131,3271
24062,3146,3280
24074,3143,3268
24086,3132,3253
24097,3126,3241
24109,3117,3236
24121,3103,3222
24133,3085,3222
24145,3074,3209
24157,3063,3198
24169,3067,3203
24180,3060,3203
24192,3047,3200
24204,3037,3217
24216,3017,3203
24228,3006,3193
24240,3000,3196
24251,3004,3190
24263,3004,3173
24275,3015,3172
24287,3012,3185
24299,3014,3171
24311,3017,3192
24322,3042,3184
24334,3054,3184
24346,3057,3175
24358,3045,3187
24370,3044,3181
24382,3031,3175
24393,3029,3183
24405,3033,3178
24417,3062,3209
24429,3100,3227
24441,3144,3254
24453,3197,3299
24464,3255,3361
24476,3307,3399
24488,3363,3447
24500,3417,3487
24512,3437,3515
24524,3461,3537
24535,3465,3539
24547,3454,3530
24559,3436,3511
24571,3398,3498
24583,3356,3480
24595,3303,3465
24606,3276,3449
24618,3244,3425
24630,3221,3400
24642,3201,3383
24654,3172,3363
24666,3145,3346
24677,3139,3322
24689,3117,3311
24701,3115,3304
24713,3110,3305
24725,3100,3294
24737,3081,3284
24748,3078,3286
24760,3069,3287
24772,3070,3283
24784,3093,3285
24796,3107,3288
24807,3109,3279
24819,3121,3290
24831,3114,3273
24843,3111,3265
24855,3114,3263
24867,3115,3246
24878,3108,3241
24890,3099,3229
24902,3095,3213
24914,3091,3220
24926,3081,3224
24938,3075,3229
24950,3086,3232
24961,3090,3229
24973,3093,3218
24985,3093,3229
24997,3082,3217
25009,3075,3208
25021,3078,3195
25032,3092,3190
25044,3105,3196
25056,3120,3189
25068,3113,3192
25080,3111,3190
25092,3110,3192
25103,3106,3193
25115,3106,3190
25127,3090,3177
25139,3082,3166
25151,3066,3164
25163,3069,3170
25174,3090,3190
25186,3120,3245
25198,3173,3306
25210,3219,3353
25222,3281,3419
25234,3342,3461
25245,3373,3503
25257,3417,3529
25269,3451,3552
25281,3454,3556
25293,3459,3553
25305,3433,3532
25316,3408,3515
25328,3374,3506
25340,3353,3493
25352,3300,3462
25364,3277,3441
25376,3230,3410
25387,3216,3391
25399,3195,3362
25411,3171,3345
25423,3157,3322
25435,3134,3316
25447,3109,3316
25458,3095,3297
25470,3090,3302
25482,3094,3295
25494,3104,3283
25506,3122,3286
25518,3130,3290
25529,3144,3299
25541,3141,3287
25553,3133,3303
25565,3123,3295
25577,3135,3296
25589,3136,3292
25600,3144,3281
25612,3142,3274
25624,3150,3280
25636,3148,3274
25648,3143,3268
25660,3124,3256
25671,3125,3254
25683,3112,3235
25695,3110,3237
25707,3100,3225
25719,3095,3228
25731,3090,3205
25742,3099,3185
25754,3094,3181
25766,3110,3167
25778,3106,3148
25790,3121,3141
25802,3112,3136
25813,3095,3130
25825,3090,3124
25837,3108,3155
25849,3145,3198
25861,3199,3255
25873,3250,3326
25885,3308,3405
25896,3362,3459
25908,3403,3527
25920,3426,3572
25932,3433,3605
25944,3428,3612
25956,3426,3623
25967,3415,3620
25979,3397,3609
25991,3358,3593
26003,3330,3572
26015,3315,3539
26027,3327,3528
26038,3316,3483
26050,3286,3445
26062,3254,3420
26074,3236,3387
26086,3217,3362
26098,3185,3326
26109,3158,3318
26121,3134,3305
26133,3112,3298
26145,3079,3278
26157,3071,3285
26169,3099,3294
26180,3116,3286
26192,3139,3305
26204,3162,3306
26216,3172,3308
26228,3198,3304
26240,3195,3297
26251,3195,3294
26263,3184,3285
26275,3162,3274
26287,3143,3258
26299,3118,3245
26311,3114,3236
26322,3122,3230
26334,3117,3213
26346,3116,3199
26358,3115,3182
26370,3130,3174
26382,3139,3162
26393,3145,3146
26405,3131,3147
26417,3118,3135
26429,3121,3136
26441,3115,3144
26453,3096,3149
26464,3093,3144
26476,3101,3165
26488,3120,3205
26500,3153,3235
26512,3197,3290
26524,3261,3354
26535,3344,3426
26547,3413,3496
26559,3466,3559
26571,3511,3597
26583,3561,3638
26595,3582,3660
26607,3579,3671
26618,3563,3665
26630,3538,3655
26642,3480,3629
26654,3432,3591
26666,3388,3559
26678,3357,3533
26689,3327,3507
26701,3304,3483
26713,3272,3460
26725,3255,3417
26737,3225,3391
26749,3204,3377
26760,3187,3354
26772,3172,3342
26784,3167,3328
26796,3182,3324
26808,3187,3307
26820,3188,3294
26831,3199,3288
26843,3204,3281
26855,3194,3277
26867,3200,3278
26879,3214,3270
26891,3222,3276
26902,3229,3273
26914,3225,3278
26926,3223,3283
26938,3206,3278
26950,3200,3268
26962,3187,3271
26973,3173,3264
26985,3155,3232
26997,3145,3214
27009,3152,3200
27021,3146,3202
27033,3136,3172
27044,3147,3167
27056,3134,3154
27068,3145,3140
27080,3144,3129
27092,3142,3119
27104,3128,3106
27115,3125,3116
27127,3121,3126
27139,3139,3151
27151,3178,3197
27163,3233,3272
27175,3287,3349
27186,3355,3425
27198,3413,3510
27210,3468,3577
27222,3517,3641
27234,3535,3676
27246,3567,3700
27257,3586,3707
27269,3571,3713
27281,3549,3690
27293,3522,3668
27305,3495,3642
27317,3476,3612
27328,3444,3589
27340,3396,3547
27352,3364,3512
27364,3331,3480
27376,3317,3451
27388,3305,3420
27399,3300,3385
27411,3274,3354
27423,3253,3310
27435,3234,3287
27447,3229,3262
27459,3227,3252
27470,3231,3252
27482,3235,3237
27494,3243,3253
27506,3238,3252
27518,3229,3249
27530,3223,3231
27541,3208,3224
27553,3219,3224
27565,3212,3230
27577,3212,3234
27589,3211,3229
27601,3215,3221
27613,3209,3211
27624,3196,3193
27636,3174,3186
27648,3163,3175
27660,3135,3147
27672,3124,3140
27684,3095,3140
27695,3081,3136
27707,3084,3123
27719,3085,3122
27731,3092,3117
27743,3096,3108
27755,3111,3111
27766,3116,3116
27778,3117,3110
27790,3120,3109
27802,3103,3090
27814,3094,3084
27826,3099,3088
27837,3128,3087
27849,3165,3095
27861,3214,3141
27873,3271,3196
27885,3322,3270
27897,3389,3355
27908,3438,3432
27920,3492,3490
27932,3539,3540
27944,3587,3578
27956,3607,3612
27968,3619,3628
27979,3613,3625
27991,3607,3613
28003,3590,3604
28015,3564,3591
28027,3544,3574
28039,3511,3541
28051,3459,3511
28062,3408,3475
28074,3375,3446
28086,3330,3412
28098,3308,3372
28110,3278,3320
28122,3253,3280
28133,3215,3248
28145,3205,3222
28157,3187,3192
28169,3175,3183
28181,3181,3173
28193,3195,3180
28204,3206,3181
28216,3222,3184
28228,3220,3175
28240,3236,3160
28252,3221,3168
28264,3220,3147
28275,3234,3154
28287,3234,3149
28299,3229,3152
28311,3216,3133
28323,3205,3125
28335,3204,3104
28346,3192,3091
28358,3201,3092
28370,3195,3082
28382,3193,3082
28394,3179,3078
28406,3144,3061
28417,3129,3059
28429,3118,3064
28441,3117,3069
28453,3119,3068
28465,3128,3074
28477,3129,3070
28488,3132,3063
28500,3129,3054
28512,3125,3052
28524,3108,3049
28536,3108,3051
28548,3101,3052
28559,3092,3046
28571,3081,3034
28583,3075,3044
28595,3076,3057
28607,3088,3092
28619,3131,3122
28630,3190,3185
28642,3258,3250
28654,3346,3317
28666,3436,3387
28678,3491,3439
28690,3557,3477
28701,3589,3504
28713,3600,3504
28725,3599,3511
28737,3601,3508
28749,3572,3501
28761,3545,3473
28772,3518,3454
28784,3466,3434
28796,3411,3409
28808,3367,3375
28820,3344,3332
28832,3312,3289
28843,3286,3262
28855,3259,3228
28867,3230,3204
28879,3214,3179
28891,3199,3158
28903,3184,3161
28915,3182,3141
28926,3175,3130
28938,3176,3125
28950,3176,3116
28962,3184,3119
28974,3185,3120
28986,3190,3121
28997,3197,3118
29009,3207,3099
29021,3195,3105
29033,3206,3109
29045,3201,3110
29057,3199,3097
29068,3186,3098
29080,3173,3088
29092,3172,3075
29104,3169,3063
29116,3161,3061
29128,3150,3044
29139,3154,3039
29151,3146,3041
29163,3135,3044
29175,3103,3049
29187,3093,3035
29199,3080,3037
29210,3061,3033
29222,3054,3029
29234,3071,3017
29246,3084,3017
29258,3087,3012
29270,3088,3009
29281,3100,3003
29293,3108,3000
29305,3121,2995
29317,3128,2986
29329,3122,3004
29341,3127,3001
29352,3126,3030
29364,3149,3060
29376,3195,3099
29388,3236,3170
29400,3303,3233
29412,3371,3289
29423,3444,3341
29435,3507,3382
29447,3552,3398
29459,3592,3421
29471,3600,3429
29483,3585,3422
29494,3550,3403
29506,3516,3389
29518,3462,3364
29530,3408,3318
29542,3367,3312
29554,3330,3275
29565,3297,3252
29577,3270,3230
29589,3237,3205
29601,3208,3190
29613,3187,3158
29625,3165,3137
29637,3149,3118
29648,3154,3109
29660,3144,3098
29672,3145,3091
29684,3152,3089
29696,3176,3088
29708,3182,3085
29719,3178,3095
29731,3192,3095
29743,3198,3100
29755,3195,3105
29767,3210,3111
29779,3216,3124
29790,3209,3126
29802,3178,3128
29814,3156,3114
29826,3127,3108
29838,3116,3089
29850,3102,3073
29861,3115,3045
29873,3119,3043
29885,3124,3030
29897,3124,3014
29909,3111,3015
29921,3096,2999
29932,3082,3002
29944,3094,3008
29956,3107,3020
29968,3114,3017
29980,3109,3020
29992,3097,3028
