timestamp_ms,ppg1,ppg2
0,3166,3238
12,3179,3237
24,3203,3248
36,3203,3242
48,3187,3217
59,3174,3218
71,3183,3211
83,3173,3199
95,3182,3191
107,3152,3155
119,3201,3189
130,3167,3149
142,3169,3146
154,3198,3172
166,3220,3188
178,3250,3226
189,3234,3249
201,3225,3245
213,3189,3226
225,3191,3226
237,3179,3225
249,3170,3201
260,3170,3204
272,3182,3200
284,3191,3208
296,3187,3188
308,3193,3194
320,3202,3193
331,3186,3167
343,3157,3147
355,3167,3136
367,3200,3175
379,3234,3209
390,3242,3222
402,3238,3242
414,3226,3235
426,3219,3260
438,3183,3225
450,3149,3208
461,3136,3183
473,3153,3185
485,3182,3213
497,3190,3209
509,3228,3219
521,3253,3238
532,3232,3225
544,3221,3240
556,3225,3249
568,3203,3246
580,3191,3247
591,3184,3233
603,3172,3227
615,3162,3197
627,3181,3218
639,3191,3222
651,3177,3221
662,3195,3206
674,3207,3223
686,3186,3212
698,3184,3191
710,3179,3183
721,3194,3169
733,3204,3197
745,3207,3211
757,3208,3229
769,3189,3246
781,3183,3237
792,3182,3241
804,3175,3214
816,3141,3196
828,3161,3185
840,3157,3167
852,3147,3164
863,3161,3171
875,3186,3212
887,3197,3247
899,3193,3235
911,3187,3248
922,3212,3254
934,3198,3251
946,3178,3230
958,3174,3225
970,3169,3221
982,3157,3201
993,3183,3208
1005,3201,3206
1017,3202,3188
1029,3194,3171
1041,3212,3174
1052,3201,3179
1064,3165,3163
1076,3191,3195
1088,3190,3200
1100,3171,3189
1112,3169,3181
1123,3181,3186
1135,3179,3186
1147,3173,3175
1159,3174,3215
1171,3165,3215
1183,3171,3190
1194,3176,3207
1206,3176,3206
1218,3161,3196
1230,3157,3184
1242,3190,3205
1254,3197,3201
1265,3194,3194
1277,3225,3201
1289,3223,3191
1301,3186,3150
1313,3188,3128
1324,3215,3166
1336,3242,3186
1348,3209,3178
1360,3216,3191
1372,3204,3177
1384,3185,3180
1395,3171,3178
1407,3177,3194
1419,3179,3212
1431,3159,3206
1443,3171,3223
1455,3165,3211
1466,3149,3185
1478,3148,3157
1490,3162,3153
1502,3180,3160
1514,3197,3148
1526,3220,3165
1537,3236,3180
1549,3226,3179
1561,3227,3177
1573,3221,3190
1585,3211,3187
1596,3177,3168
1608,3182,3179
1620,3178,3183
1632,3161,3188
1644,3172,3205
1656,3160,3203
1667,3160,3205
1679,3154,3198
1691,3159,3189
1703,3173,3200
1715,3159,3185
1727,3187,3218
1738,3186,3221
1750,3174,3197
1762,3187,3194
1774,3202,3215
1786,3211,3216
1797,3179,3192
1809,3188,3203
1821,3183,3207
1833,3174,3209
1845,3182,3205
1857,3168,3189
1868,3147,3187
1880,3155,3172
1892,3175,3188
1904,3136,3143
1916,3139,3113
1928,3177,3156
1939,3220,3192
1951,3220,3199
1963,3227,3217
1975,3237,3239
1987,3247,3249
1999,3219,3231
2010,3226,3244
2022,3213,3242
2034,3197,3242
2046,3195,3236
2058,3199,3236
2069,3192,3233
2081,3174,3211
2093,3178,3225
2105,3175,3218
2117,3168,3197
2129,3186,3187
2140,3203,3195
2152,3201,3205
2164,3194,3202
2176,3217,3226
2188,3217,3236
2200,3200,3236
2211,3203,3246
2223,3216,3254
2235,3210,3257
2247,3203,3214
2259,3205,3220
2270,3200,3219
2282,3189,3224
2294,3200,3230
2306,3200,3217
2318,3193,3203
2330,3181,3174
2341,3181,3187
2353,3184,3197
2365,3166,3178
2377,3171,3188
2389,3166,3215
2401,3168,3223
2412,3160,3197
2424,3163,3216
2436,3178,3217
2448,3183,3198
2460,3227,3220
2472,3243,3217
2483,3230,3205
2495,3222,3185
2507,3178,3143
2519,3176,3158
2531,3186,3164
2543,3232,3207
2554,3227,3225
2566,3224,3230
2578,3220,3235
2590,3220,3247
2602,3200,3236
2614,3200,3230
2625,3206,3263
2637,3216,3257
2649,3200,3245
2661,3196,3252
2673,3195,3244
2685,3194,3250
2696,3183,3221
2708,3208,3237
2720,3209,3222
2732,3172,3189
2744,3161,3158
2756,3190,3156
2767,3184,3149
2779,3181,3159
2791,3203,3195
2803,3207,3191
2815,3198,3194
2827,3200,3205
2838,3201,3181
2850,3174,3145
2862,3193,3133
2874,3207,3170
2886,3225,3200
2898,3198,3193
2909,3199,3213
2921,3203,3226
2933,3188,3235
2945,3186,3236
2957,3154,3239
2969,3168,3226
2980,3171,3208
2992,3194,3229
3004,3216,3222
3016,3203,3225
3028,3172,3244
3040,3151,3245
3051,3139,3242
3063,3140,3227
3075,3154,3230
3087,3165,3207
3099,3150,3150
3111,3162,3126
3122,3203,3140
3134,3210,3177
3146,3197,3171
3158,3208,3204
3170,3208,3210
3182,3189,3211
3193,3210,3218
3205,3204,3210
3217,3173,3208
3229,3178,3216
3241,3196,3221
3253,3184,3209
3264,3188,3192
3276,3211,3216
3288,3211,3205
3300,3198,3206
3312,3182,3190
3324,3180,3204
3335,3175,3208
3347,3152,3198
3359,3164,3215
3371,3154,3202
3383,3170,3190
3394,3175,3206
3406,3194,3204
3418,3206,3203
3430,3204,3194
3442,3220,3211
3454,3212,3211
3465,3203,3192
3477,3231,3216
3489,3250,3237
3501,3257,3246
3513,3252,3244
3525,3253,3259
3536,3217,3240
3548,3183,3230
3560,3191,3234
3572,3185,3221
3584,3176,3220
3596,3173,3207
3607,3174,3213
3619,3175,3220
3631,3164,3207
3643,3182,3206
3655,3192,3202
3667,3166,3193
3678,3179,3180
3690,3196,3190
3702,3186,3161
3714,3181,3124
3726,3220,3180
3738,3228,3172
3749,3214,3192
3761,3207,3199
3773,3191,3214
3785,3186,3224
3797,3165,3210
3809,3196,3231
3820,3204,3225
3832,3199,3204
3844,3215,3211
3856,3210,3188
3868,3193,3184
3880,3167,3161
3891,3170,3193
3903,3168,3173
3915,3173,3164
3927,3193,3179
3939,3202,3196
3951,3201,3193
3962,3199,3191
3974,3195,3187
3986,3190,3188
3998,3176,3169
4010,3182,3190
4022,3187,3211
4033,3189,3202
4045,3185,3193
4057,3200,3218
4069,3188,3220
4081,3171,3195
4093,3162,3196
4104,3169,3195
4116,3166,3187
4128,3181,3189
4140,3194,3193
4152,3208,3205
4164,3199,3185
4175,3217,3192
4187,3220,3170
4199,3196,3169
4211,3191,3173
4223,3168,3181
4235,3156,3190
4246,3153,3174
4258,3178,3193
4270,3187,3200
4282,3170,3188
4294,3170,3193
4306,3175,3186
4317,3177,3171
4329,3199,3175
4341,3215,3195
4353,3230,3185
4365,3218,3188
4376,3223,3179
4388,3209,3169
4400,3216,3182
4412,3208,3183
4424,3225,3209
4436,3206,3212
4447,3180,3201
4459,3181,3217
4471,3167,3205
4483,3152,3216
4495,3157,3202
4507,3163,3207
4518,3177,3227
4530,3171,3209
4542,3194,3239
4554,3188,3223
4566,3172,3219
4578,3182,3204
4589,3191,3217
4601,3179,3197
4613,3179,3191
4625,3202,3217
4637,3197,3223
4649,3178,3217
4660,3194,3215
4672,3202,3216
4684,3191,3215
4696,3162,3173
4708,3194,3206
4720,3198,3205
4731,3188,3204
4743,3197,3220
4755,3214,3234
4767,3223,3244
4779,3210,3238
4791,3202,3245
4802,3198,3243
4814,3181,3222
4826,3183,3232
4838,3168,3218
4850,3139,3188
4862,3138,3196
4873,3150,3206
4885,3146,3182
4897,3135,3154
4909,3153,3150
4921,3150,3156
4933,3177,3188
4944,3184,3213
4956,3201,3228
4968,3197,3234
4980,3184,3225
4992,3197,3247
5004,3222,3246
5015,3223,3238
5027,3242,3232
5039,3240,3211
5051,3224,3179
5063,3218,3163
5075,3228,3175
5086,3220,3180
5098,3206,3177
5110,3202,3188
5122,3196,3197
5134,3192,3207
5146,3193,3202
5157,3187,3234
5169,3176,3231
5181,3151,3217
5193,3142,3222
5205,3137,3218
5217,3139,3210
5228,3149,3208
5240,3166,3217
5252,3159,3205
5264,3165,3189
5276,3194,3206
5287,3202,3209
5299,3195,3192
5311,3203,3177
5323,3199,3186
5335,3200,3176
5347,3188,3182
5358,3201,3204
5370,3185,3205
5382,3149,3197
5394,3166,3203
5406,3187,3214
5418,3199,3211
5429,3206,3197
5441,3208,3215
5453,3193,3198
5465,3189,3189
5477,3198,3197
5489,3196,3181
5500,3177,3158
5512,3189,3144
5524,3188,3175
5536,3190,3192
5548,3190,3217
5560,3188,3234
5571,3192,3240
5583,3201,3244
5595,3187,3216
5607,3177,3231
5619,3188,3215
5631,3178,3201
5642,3191,3203
5654,3186,3194
5666,3185,3196
5678,3188,3185
5690,3186,3188
5702,3173,3172
5713,3171,3162
5725,3205,3195
5737,3203,3201
5749,3201,3216
5761,3204,3219
5773,3195,3220
5784,3179,3210
5796,3168,3188
5808,3182,3193
5820,3186,3187
5832,3191,3193
5844,3178,3178
5855,3156,3152
5867,3174,3175
5879,3168,3168
5891,3191,3200
5903,3191,3186
5915,3183,3179
5926,3208,3209
5938,3206,3205
5950,3177,3197
5962,3171,3168
5974,3179,3204
5985,3185,3206
5997,3183,3196
6009,3202,3196
6021,3194,3184
6033,3186,3166
6045,3190,3152
6056,3227,3173
6068,3234,3184
6080,3214,3177
6092,3237,3182
6104,3203,3131
6116,3208,3128
6127,3221,3149
6139,3237,3174
6151,3249,3200
6163,3228,3198
6175,3216,3197
6187,3208,3221
6198,3182,3229
6210,3195,3263
6222,3181,3294
6234,3190,3292
6246,3182,3264
6258,3202,3278
6269,3209,3244
6281,3197,3237
6293,3219,3229
6305,3218,3214
6317,3219,3218
6329,3193,3198
6340,3205,3207
6352,3204,3209
6364,3188,3215
6376,3204,3239
6388,3198,3231
6400,3184,3236
6411,3179,3208
6423,3179,3212
6435,3185,3194
6447,3167,3149
6459,3210,3187
6471,3226,3199
6482,3226,3224
6494,3214,3228
6506,3217,3244
6518,3211,3246
6530,3198,3249
6542,3200,3252
6553,3179,3223
6565,3190,3228
6577,3191,3227
6589,3217,3246
6601,3208,3232
6613,3200,3219
6624,3231,3251
6636,3224,3246
6648,3220,3237
6660,3233,3245
6672,3224,3242
6684,3226,3242
6695,3188,3194
6707,3162,3168
6719,3181,3174
6731,3184,3189
6743,3195,3203
6755,3192,3215
6766,3184,3220
6778,3179,3215
6790,3183,3229
6802,3162,3217
6814,3155,3203
6826,3182,3220
6837,3188,3210
6849,3189,3215
6861,3199,3203
6873,3220,3218
6885,3220,3214
6896,3204,3186
6908,3188,3194
6920,3190,3203
6932,3199,3214
6944,3198,3223
6956,3198,3237
6967,3208,3234
6979,3187,3227
6991,3196,3242
7003,3183,3229
7015,3158,3230
7027,3162,3222
7038,3166,3224
7050,3162,3206
7062,3160,3185
7074,3166,3180
7086,3180,3193
7098,3184,3201
7109,3206,3219
7121,3200,3219
7133,3200,3226
7145,3203,3229
7157,3218,3238
7169,3219,3219
7180,3224,3218
7192,3237,3241
7204,3225,3242
7216,3214,3241
7228,3201,3218
7240,3196,3222
7251,3192,3204
7263,3187,3206
7275,3225,3230
7287,3227,3241
7299,3192,3204
7311,3191,3179
7322,3227,3217
7334,3232,3244
7346,3208,3230
7358,3199,3250
7370,3178,3238
7382,3168,3235
7393,3187,3238
7405,3199,3244
7417,3208,3250
7429,3190,3262
7441,3210,3273
7453,3205,3244
7464,3192,3213
7476,3174,3157
7488,3171,3152
7500,3192,3159
7512,3176,3128
7523,3174,3122
7535,3182,3120
7547,3214,3157
7559,3226,3191
7571,3233,3212
7583,3208,3239
7594,3195,3229
7606,3194,3247
7618,3198,3254
7630,3180,3240
7642,3183,3247
7654,3177,3231
7665,3178,3220
7677,3171,3226
7689,3171,3232
7701,3150,3210
7713,3155,3203
7725,3180,3218
7736,3185,3215
7748,3194,3224
7760,3196,3197
7772,3231,3199
7784,3238,3199
7796,3221,3177
7807,3232,3168
7819,3237,3177
7831,3228,3193
7843,3213,3199
7855,3179,3173
7867,3169,3178
7878,3160,3178
7890,3176,3199
7902,3151,3166
7914,3163,3175
7926,3202,3192
7938,3219,3227
7949,3206,3239
7961,3201,3219
7973,3214,3241
7985,3200,3213
7997,3193,3208
8009,3201,3227
8020,3191,3218
8032,3183,3215
8044,3190,3194
8056,3196,3204
8068,3203,3200
8080,3179,3188
8091,3200,3221
8103,3214,3215
8115,3192,3220
8127,3196,3224
8139,3208,3226
8151,3189,3213
8162,3172,3189
8174,3196,3213
8186,3189,3200
8198,3186,3190
8210,3166,3168
8222,3180,3168
8233,3177,3189
8245,3166,3192
8257,3172,3203
8269,3171,3209
8281,3180,3206
8293,3168,3199
8304,3196,3201
8316,3190,3207
8328,3182,3192
8340,3191,3214
8352,3182,3195
8364,3159,3188
8375,3175,3191
8387,3151,3176
8399,3164,3186
8411,3176,3187
8423,3182,3195
8435,3198,3192
8446,3193,3179
8458,3203,3188
8470,3202,3182
8482,3209,3196
8494,3203,3189
8505,3176,3146
8517,3180,3155
8529,3190,3175
8541,3200,3210
8553,3203,3217
8565,3208,3230
8576,3212,3228
8588,3202,3221
8600,3184,3212
8612,3176,3191
8624,3198,3221
8636,3201,3203
8647,3204,3209
8659,3191,3216
8671,3178,3209
8683,3162,3195
8695,3141,3168
8707,3154,3180
8718,3156,3161
8730,3153,3156
8742,3167,3167
8754,3171,3174
8766,3178,3176
8778,3174,3165
8789,3188,3188
8801,3186,3179
8813,3172,3159
8825,3197,3186
8837,3196,3184
8849,3180,3170
8860,3191,3129
8872,3227,3170
8884,3232,3175
8896,3204,3180
8908,3205,3187
8920,3204,3176
8931,3200,3190
8943,3179,3193
8955,3171,3200
8967,3171,3184
8979,3162,3165
8991,3181,3161
9002,3181,3162
9014,3179,3154
9026,3192,3165
9038,3212,3178
9050,3218,3190
9061,3202,3197
9073,3196,3211
9085,3176,3206
9097,3147,3159
9109,3146,3134
9121,3166,3158
9132,3188,3177
9144,3172,3165
9156,3206,3188
9168,3204,3193
9180,3198,3181
9192,3222,3187
9203,3231,3206
9215,3222,3214
9227,3218,3205
9239,3212,3212
9251,3189,3195
9263,3165,3166
9274,3181,3187
9286,3189,3191
9298,3190,3196
9310,3190,3197
9322,3197,3211
9334,3210,3213
9345,3184,3202
9357,3187,3211
9369,3192,3210
9381,3190,3200
9393,3201,3192
9405,3210,3211
9416,3198,3213
9428,3188,3196
9440,3206,3210
9452,3181,3206
9464,3165,3191
9476,3166,3193
9487,3190,3213
9499,3218,3211
9511,3210,3184
9523,3242,3210
9535,3233,3212
9547,3218,3201
9558,3219,3211
9570,3194,3211
9582,3198,3218
9594,3191,3214
9606,3197,3233
9618,3198,3242
9629,3185,3236
9641,3189,3239
9653,3198,3236
9665,3197,3227
9677,3195,3216
9689,3200,3235
9700,3163,3185
9712,3156,3154
9724,3215,3188
9736,3233,3212
9748,3240,3235
9760,3219,3237
9771,3226,3254
9783,3224,3269
9795,3189,3231
9807,3197,3241
9819,3194,3228
9831,3185,3217
9842,3195,3212
9854,3188,3210
9866,3189,3197
9878,3174,3186
9890,3203,3228
9902,3173,3225
9913,3160,3219
9925,3181,3247
9937,3209,3275
9949,3223,3274
9961,3222,3257
9973,3261,3265
9984,3259,3261
9996,3246,3238
