timestamp_ms,ppg1,ppg2
0,3105,3163
12,3132,3178
23,3177,3183
35,3207,3200
47,3243,3207
59,3248,3225
71,3257,3236
83,3254,3241
94,3234,3259
106,3206,3263
118,3169,3261
130,3121,3260
142,3088,3279
153,3066,3276
165,3040,3274
177,3033,3255
189,3045,3246
201,3076,3240
213,3112,3239
224,3160,3254
236,3210,3254
248,3244,3273
260,3276,3271
272,3306,3272
283,3316,3278
295,3309,3275
307,3288,3272
319,3241,3256
331,3199,3265
343,3158,3262
354,3124,3261
366,3107,3263
378,3101,3244
390,3076,3213
402,3035,3192
413,3017,3204
425,3047,3223
437,3102,3238
449,3168,3240
461,3213,3218
473,3223,3217
484,3197,3211
496,3157,3209
508,3128,3209
520,3110,3214
532,3083,3214
544,3057,3217
555,3035,3225
567,3042,3229
579,3049,3224
591,3079,3220
603,3102,3210
614,3148,3216
626,3170,3204
638,3207,3186
650,3250,3180
662,3279,3172
674,3293,3183
685,3307,3181
697,3315,3190
709,3328,3196
721,3340,3206
733,3329,3205
745,3314,3200
756,3281,3212
768,3235,3219
780,3193,3226
792,3170,3204
804,3162,3203
815,3182,3197
827,3183,3189
839,3186,3193
851,3228,3213
863,3273,3240
875,3296,3261
886,3348,3290
898,3381,3318
910,3392,3330
922,3392,3327
934,3376,3342
945,3357,3337
957,3313,3322
969,3281,3306
981,3235,3306
993,3212,3314
1005,3230,3288
1016,3271,3267
1028,3298,3238
1040,3325,3221
1052,3326,3223
1064,3327,3219
1075,3313,3216
1087,3322,3232
1099,3315,3236
1111,3304,3246
1123,3268,3251
1135,3246,3240
1146,3225,3245
1158,3210,3244
1170,3206,3239
1182,3193,3231
1194,3151,3252
1206,3128,3266
1217,3131,3296
1229,3152,3302
1241,3189,3316
1253,3221,3303
1265,3226,3305
1276,3244,3292
1288,3253,3277
1300,3264,3276
1312,3275,3260
1324,3289,3252
1336,3293,3247
1347,3280,3254
1359,3276,3257
1371,3281,3261
1383,3264,3250
1395,3234,3231
1407,3216,3221
1418,3190,3225
1430,3174,3211
1442,3165,3216
1454,3171,3223
1466,3174,3223
1477,3168,3228
1489,3179,3247
1501,3182,3262
1513,3191,3290
1525,3215,3297
1537,3216,3312
1548,3230,3317
1560,3235,3321
1572,3251,3311
1584,3267,3311
1596,3283,3301
1607,3295,3310
1619,3304,3286
1631,3306,3282
1643,3284,3273
1655,3241,3261
1667,3213,3240
1678,3192,3229
1690,3153,3214
1702,3150,3206
1714,3154,3201
1726,3174,3200
1737,3185,3203
1749,3196,3204
1761,3219,3234
1773,3248,3252
1785,3255,3272
1797,3256,3290
1808,3243,3301
1820,3232,3301
1832,3220,3313
1844,3207,3304
1856,3194,3293
1868,3177,3261
1879,3160,3246
1891,3131,3229
1903,3139,3212
1915,3146,3189
1927,3155,3176
1938,3169,3172
1950,3185,3165
1962,3189,3170
1974,3180,3164
1986,3169,3166
1998,3153,3149
2009,3141,3166
2021,3125,3176
2033,3125,3184
2045,3102,3181
2057,3110,3185
2069,3096,3197
2080,3101,3192
2092,3105,3204
2104,3128,3212
2116,3161,3219
2128,3195,3242
2140,3219,3253
2151,3247,3258
2163,3266,3271
2175,3282,3297
2187,3289,3296
2199,3304,3303
2210,3300,3315
2222,3310,3302
2234,3303,3302
2246,3312,3295
2258,3313,3289
2270,3315,3282
2281,3307,3256
2293,3316,3268
2305,3325,3274
2317,3326,3276
2329,3335,3275
2341,3325,3286
2352,3313,3283
2364,3293,3283
2376,3283,3287
2388,3283,3297
2400,3274,3300
2411,3261,3308
2423,3241,3310
2435,3227,3315
2447,3196,3309
2459,3189,3299
2471,3173,3286
2482,3159,3260
2494,3161,3247
2506,3157,3229
2518,3153,3221
2530,3164,3201
2542,3171,3195
2553,3180,3177
2565,3184,3180
2577,3192,3186
2589,3192,3180
2601,3200,3192
2613,3190,3184
2624,3182,3179
2636,3179,3178
2648,3172,3183
2660,3166,3191
2672,3168,3190
2683,3166,3191
2695,3182,3193
2707,3174,3198
2719,3180,3207
2731,3177,3214
2743,3186,3219
2754,3185,3213
2766,3191,3206
2778,3190,3200
2790,3210,3210
2802,3239,3212
2814,3270,3221
2825,3276,3238
2837,3283,3249
2849,3277,3264
2861,3262,3274
2873,3252,3296
2885,3277,3298
2896,3299,3308
2908,3312,3307
2920,3324,3301
2932,3319,3283
2944,3332,3262
2956,3335,3254
2967,3334,3248
2979,3320,3234
2991,3328,3239
3003,3332,3240
3015,3316,3254
3027,3294,3249
3038,3292,3253
3050,3293,3243
3062,3284,3244
3074,3278,3254
3086,3274,3245
3098,3243,3241
3109,3224,3242
3121,3215,3248
3133,3198,3252
3145,3202,3268
3157,3214,3266
3169,3223,3265
3180,3243,3265
3192,3247,3266
3204,3262,3258
3216,3257,3249
3228,3262,3240
3240,3253,3234
3251,3245,3229
3263,3230,3233
3275,3207,3220
3287,3199,3215
3299,3187,3217
3310,3196,3213
3322,3196,3195
3334,3206,3200
3346,3211,3192
3358,3217,3195
3370,3225,3186
3381,3206,3184
3393,3212,3185
3405,3218,3204
3417,3205,3198
3429,3186,3203
3441,3170,3197
3452,3143,3186
3464,3146,3190
3476,3141,3184
3488,3142,3190
3500,3170,3189
3512,3190,3194
3523,3195,3206
3535,3231,3221
3547,3253,3227
3559,3277,3262
3571,3290,3277
3582,3298,3286
3594,3315,3297
3606,3339,3308
3618,3345,3312
3630,3377,3303
3642,3388,3308
3653,3403,3303
3665,3418,3303
3677,3425,3292
3689,3435,3301
3701,3416,3285
3713,3399,3286
3724,3371,3270
3736,3363,3269
3748,3341,3267
3760,3327,3258
3772,3298,3259
3784,3287,3261
3795,3289,3264
3807,3296,3271
3819,3291,3264
3831,3288,3249
3843,3273,3238
3855,3264,3249
3866,3259,3242
3878,3259,3246
3890,3253,3241
3902,3244,3231
3914,3249,3244
3926,3244,3241
3937,3246,3241
3949,3250,3238
3961,3250,3236
3973,3247,3235
3985,3238,3233
3996,3225,3222
4008,3216,3224
4020,3205,3215
4032,3181,3203
4044,3169,3196
4056,3175,3200
4067,3175,3191
4079,3192,3182
4091,3182,3182
4103,3185,3186
4115,3192,3191
4127,3192,3205
4138,3188,3203
4150,3178,3194
4162,3182,3179
4174,3194,3179
4186,3192,3175
4198,3186,3170
4209,3195,3174
4221,3211,3169
4233,3233,3176
4245,3242,3196
4257,3265,3215
4268,3272,3223
4280,3292,3257
4292,3303,3266
4304,3312,3285
4316,3333,3302
4328,3352,3300
4339,3365,3302
4351,3376,3311
4363,3386,3311
4375,3389,3307
4387,3401,3313
4399,3393,3307
4410,3393,3298
4422,3374,3282
4434,3374,3274
4446,3356,3260
4458,3349,3245
4470,3350,3240
4481,3355,3235
4493,3345,3232
4505,3330,3233
4517,3313,3238
4529,3287,3237
4541,3270,3242
4552,3245,3240
4564,3247,3244
4576,3244,3248
4588,3255,3248
4600,3260,3240
4612,3261,3241
4623,3267,3247
4635,3267,3231
4647,3269,3248
4659,3278,3263
4671,3283,3269
4682,3272,3268
4694,3269,3259
4706,3250,3256
4718,3239,3240
4730,3235,3235
4742,3230,3213
4753,3223,3201
4765,3215,3196
4777,3190,3196
4789,3193,3195
4801,3192,3206
4813,3190,3196
4824,3177,3182
4836,3185,3173
4848,3173,3166
4860,3160,3165
4872,3146,3161
4884,3163,3165
4895,3165,3166
4907,3177,3170
4919,3184,3180
4931,3180,3183
4943,3186,3164
4954,3192,3162
4966,3203,3170
4978,3205,3170
4990,3221,3175
5002,3221,3179
5014,3240,3189
5025,3272,3215
5037,3302,3244
5049,3316,3257
5061,3330,3279
5073,3352,3303
5085,3345,3304
5096,3342,3317
5108,3368,3331
5120,3374,3328
5132,3369,3327
5144,3374,3319
5156,3375,3295
5167,3364,3295
5179,3374,3274
5191,3377,3264
5203,3368,3238
5215,3351,3244
5227,3353,3239
5238,3338,3231
5250,3335,3229
5262,3330,3217
5274,3325,3214
5286,3306,3210
5298,3293,3200
5309,3288,3210
5321,3285,3225
5333,3263,3225
5345,3250,3237
5357,3244,3239
5368,3229,3241
5380,3223,3247
5392,3218,3237
5404,3227,3235
5416,3228,3231
5428,3247,3229
5439,3247,3231
5451,3257,3228
5463,3251,3233
5475,3260,3229
5487,3261,3222
5499,3254,3219
5510,3255,3212
5522,3252,3208
5534,3262,3207
5546,3272,3222
5558,3257,3226
5570,3239,3231
5581,3226,3210
5593,3208,3209
5605,3200,3214
5617,3183,3199
5629,3174,3208
5641,3165,3201
5652,3174,3205
5664,3183,3203
5676,3182,3194
5688,3214,3192
5700,3233,3197
5711,3235,3205
5723,3247,3212
5735,3254,3215
5747,3241,3196
5759,3232,3187
5771,3213,3181
5782,3201,3180
5794,3181,3179
5806,3174,3183
5818,3181,3194
5830,3196,3203
5842,3219,3199
5853,3259,3218
5865,3282,3227
5877,3310,3248
5889,3335,3266
5901,3361,3276
5913,3390,3300
5924,3425,3310
5936,3424,3324
5948,3448,3322
5960,3454,3327
5972,3444,3321
5984,3442,3329
5995,3428,3318
6007,3419,3297
6019,3390,3295
6031,3366,3285
6043,3344,3264
6055,3321,3256
6066,3301,3249
6078,3305,3245
6090,3299,3243
6102,3294,3246
6114,3296,3242
6126,3284,3245
6137,3277,3226
6149,3278,3240
6161,3268,3236
6173,3261,3223
6185,3264,3224
6196,3268,3224
6208,3271,3229
6220,3272,3233
6232,3262,3238
6244,3259,3234
6256,3239,3249
6267,3225,3238
6279,3206,3213
6291,3197,3212
6303,3185,3196
6315,3186,3188
6327,3178,3180
6338,3191,3190
6350,3195,3189
6362,3206,3192
6374,3216,3182
6386,3219,3181
6398,3220,3175
6409,3222,3179
6421,3234,3160
6433,3243,3172
6445,3243,3184
6457,3241,3189
6469,3223,3204
6480,3226,3204
6492,3217,3206
6504,3207,3204
6516,3192,3204
6528,3194,3216
6539,3187,3216
6551,3181,3216
6563,3171,3214
6575,3177,3199
6587,3175,3195
6599,3168,3187
6610,3154,3183
6622,3175,3167
6634,3178,3183
6646,3178,3183
6658,3197,3178
6670,3199,3192
6681,3208,3184
6693,3216,3182
6705,3230,3189
6717,3249,3193
6729,3281,3176
6741,3306,3184
6752,3320,3187
6764,3333,3201
6776,3339,3225
6788,3350,3251
6800,3353,3273
6812,3365,3278
6823,3368,3300
6835,3365,3319
6847,3364,3325
6859,3366,3341
6871,3369,3342
6883,3363,3343
6894,3381,3345
6906,3382,3344
6918,3383,3329
6930,3375,3315
6942,3367,3297
6954,3343,3290
6965,3316,3270
6977,3294,3250
6989,3282,3225
7001,3260,3209
7013,3241,3218
7024,3245,3213
7036,3240,3200
7048,3245,3194
7060,3236,3190
7072,3214,3196
7084,3213,3193
7095,3208,3185
7107,3194,3187
7119,3190,3207
7131,3183,3198
7143,3188,3207
7155,3181,3206
7166,3182,3198
7178,3167,3194
7190,3167,3191
7202,3170,3178
7214,3193,3183
7226,3202,3179
7237,3202,3187
7249,3207,3187
7261,3203,3195
7273,3215,3198
7285,3228,3203
7297,3229,3216
7308,3236,3214
7320,3228,3209
7332,3226,3219
7344,3206,3212
7356,3185,3208
7368,3174,3194
7379,3166,3198
7391,3164,3194
7403,3163,3196
7415,3166,3192
7427,3175,3192
7438,3168,3190
7450,3147,3182
7462,3144,3175
7474,3142,3162
7486,3137,3164
7498,3132,3172
7509,3136,3162
7521,3157,3176
7533,3178,3182
7545,3192,3177
7557,3195,3184
7569,3192,3200
7580,3196,3201
7592,3197,3197
7604,3201,3211
7616,3215,3201
7628,3220,3206
7640,3241,3218
7651,3253,3223
7663,3270,3228
7675,3281,3232
7687,3300,3248
7699,3313,3253
7711,3313,3275
7722,3308,3296
7734,3321,3310
7746,3319,3320
7758,3323,3325
7770,3320,3343
7782,3310,3338
7793,3295,3330
7805,3285,3328
7817,3263,3316
7829,3242,3297
7841,3235,3271
7852,3227,3244
7864,3222,3233
7876,3200,3207
7888,3168,3199
7900,3165,3196
7912,3163,3197
7923,3153,3188
7935,3147,3182
7947,3145,3161
7959,3148,3161
7971,3143,3166
7983,3144,3163
7994,3144,3167
8006,3156,3172
8018,3160,3186
8030,3173,3181
8042,3180,3201
8054,3189,3202
8065,3187,3210
8077,3192,3195
8089,3188,3197
8101,3176,3183
8113,3165,3196
8124,3152,3199
8136,3144,3184
8148,3147,3197
8160,3150,3194
8172,3146,3189
8184,3154,3189
8195,3176,3196
8207,3178,3208
8219,3182,3217
8231,3188,3205
8243,3177,3211
8255,3159,3209
8266,3150,3198
8278,3144,3203
8290,3128,3206
8302,3116,3200
8314,3124,3194
8326,3112,3180
8337,3117,3174
8349,3131,3184
8361,3134,3189
8373,3117,3185
8385,3131,3186
8397,3119,3182
8408,3118,3173
8420,3133,3188
8432,3147,3187
8444,3161,3198
8456,3178,3204
8468,3210,3201
8479,3249,3206
8491,3276,3214
8503,3317,3229
8515,3322,3238
8527,3327,3245
8539,3334,3266
8550,3331,3274
8562,3327,3292
8574,3325,3318
8586,3316,3326
8598,3305,3346
8609,3275,3357
8621,3239,3359
8633,3225,3339
8645,3195,3329
8657,3175,3311
8669,3168,3298
8680,3151,3265
8692,3150,3245
8704,3142,3228
8716,3147,3205
8728,3148,3181
8740,3148,3163
8751,3141,3152
8763,3138,3165
8775,3129,3173
8787,3105,3177
8799,3110,3189
8811,3111,3191
8822,3114,3191
8834,3113,3205
8846,3105,3204
8858,3111,3195
8870,3113,3196
8882,3127,3185
8893,3142,3189
8905,3150,3191
8917,3153,3191
8929,3172,3207
8941,3183,3200
8952,3193,3215
8964,3190,3204
8976,3193,3200
8988,3179,3201
9000,3189,3201
9012,3198,3201
9023,3193,3189
9035,3187,3201
9047,3174,3212
9059,3174,3206
9071,3156,3205
9083,3148,3207
9094,3143,3211
9106,3146,3223
9118,3148,3223
9130,3151,3228
9142,3144,3225
9154,3137,3218
9165,3139,3220
9177,3135,3201
9189,3125,3194
9201,3133,3195
9213,3143,3196
9225,3158,3195
9236,3157,3201
9248,3164,3204
9260,3163,3206
9272,3178,3208
9284,3208,3212
9296,3240,3204
9307,3270,3213
9319,3296,3225
9331,3319,3234
9343,3329,3242
9355,3329,3248
9366,3322,3273
9378,3311,3288
9390,3324,3293
9402,3303,3311
9414,3282,3315
9426,3258,3311
9437,3225,3311
9449,3220,3287
9461,3200,3283
9473,3194,3274
9485,3184,3263
9497,3179,3264
9508,3164,3266
9520,3159,3241
9532,3160,3239
9544,3168,3223
9556,3173,3219
9568,3175,3206
9579,3179,3201
9591,3166,3205
9603,3170,3222
9615,3163,3225
9627,3160,3229
9639,3162,3238
9650,3157,3249
9662,3151,3245
9674,3156,3241
9686,3145,3240
9698,3138,3241
9709,3147,3228
9721,3154,3240
9733,3149,3243
9745,3148,3248
9757,3153,3253
9769,3163,3246
9780,3185,3251
9792,3190,3244
9804,3196,3248
9816,3174,3238
9828,3162,3232
9840,3161,3225
9851,3148,3215
9863,3135,3221
9875,3133,3218
9887,3135,3215
9899,3133,3206
9911,3141,3210
9922,3161,3201
9934,3166,3208
9946,3180,3202
9958,3185,3197
9970,3201,3195
9982,3201,3197
9993,3197,3196
10005,3174,3198
10017,3168,3202
10029,3162,3213
10041,3169,3226
10053,3175,3237
10064,3174,3233
10076,3179,3233
10088,3184,3241
10100,3199,3248
10112,3214,3248
10123,3219,3253
10135,3237,3255
10147,3254,3251
10159,3269,3265
10171,3275,3282
10183,3287,3298
10195,3299,3300
10206,3277,3297
10218,3279,3306
10230,3271,3298
10242,3257,3294
10254,3243,3288
10265,3241,3286
10277,3234,3279
10289,3210,3269
10301,3191,3262
10313,3166,3248
10325,3150,3245
10336,3152,3246
10348,3140,3233
10360,3140,3234
10372,3135,3229
10384,3139,3230
10396,3136,3230
10407,3134,3231
10419,3150,3240
10431,3148,3237
10443,3136,3234
10455,3145,3247
10467,3144,3244
10478,3145,3243
10490,3141,3233
10502,3153,3232
10514,3162,3250
10526,3160,3259
10538,3175,3270
10549,3171,3260
10561,3169,3264
10573,3174,3259
10585,3181,3260
10597,3190,3255
10609,3193,3256
10620,3185,3256
10632,3188,3244
10644,3164,3234
10656,3166,3237
10668,3149,3228
10679,3147,3235
10691,3145,3228
10703,3144,3227
10715,3143,3218
10727,3149,3215
10739,3162,3212
10750,3162,3212
10762,3176,3213
10774,3184,3217
10786,3178,3203
10798,3165,3207
10810,3177,3206
10821,3166,3211
10833,3174,3222
10845,3171,3221
10857,3191,3234
10869,3210,3238
10881,3234,3255
10892,3246,3265
10904,3261,3278
10916,3290,3286
10928,3302,3296
10940,3322,3308
10952,3333,3324
10963,3335,3325
10975,3328,3315
10987,3319,3324
10999,3308,3335
11011,3271,3333
11023,3249,3336
11034,3221,3322
11046,3196,3317
11058,3186,3310
11070,3181,3303
11082,3162,3289
11094,3157,3279
11105,3148,3273
11117,3134,3261
11129,3129,3257
11141,3122,3246
11153,3113,3227
11165,3104,3233
11176,3091,3216
11188,3103,3209
11200,3111,3207
11212,3116,3213
11224,3142,3218
11235,3154,3226
11247,3151,3236
11259,3150,3242
11271,3164,3248
11283,3173,3256
11295,3190,3262
11306,3188,3279
11318,3210,3284
11330,3220,3274
11342,3229,3266
11354,3230,3256
11366,3234,3247
11377,3234,3244
11389,3217,3235
11401,3212,3232
11413,3215,3234
11425,3214,3238
11437,3198,3218
11448,3183,3222
11460,3179,3237
11472,3172,3235
11484,3160,3234
11496,3158,3231
11508,3155,3228
11519,3137,3226
11531,3157,3229
11543,3167,3235
11555,3164,3242
11567,3177,3239
11579,3196,3223
11590,3204,3218
11602,3220,3223
11614,3257,3227
11626,3297,3222
11638,3317,3237
11650,3332,3259
11661,3334,3279
11673,3346,3307
11685,3345,3325
11697,3321,3350
11709,3286,3359
11720,3276,3367
11732,3267,3383
11744,3249,3400
11756,3227,3394
11768,3220,3396
11780,3212,3382
11791,3213,3371
11803,3213,3372
11815,3214,3349
11827,3210,3332
11839,3207,3334
11851,3205,3320
11862,3203,3299
11874,3209,3306
11886,3208,3305
11898,3209,3303
11910,3195,3299
11922,3179,3291
11933,3177,3284
11945,3176,3278
11957,3182,3277
11969,3194,3287
11981,3195,3285
11993,3203,3304
12004,3211,3298
12016,3197,3302
12028,3197,3314
12040,3204,3312
12052,3195,3314
12064,3195,3312
12075,3207,3301
12087,3195,3284
12099,3191,3285
12111,3192,3267
12123,3187,3273
12135,3187,3255
12146,3185,3268
12158,3195,3266
12170,3209,3276
12182,3198,3266
12194,3198,3273
12206,3192,3264
12217,3187,3266
12229,3186,3276
12241,3180,3267
12253,3174,3263
12265,3172,3269
12277,3171,3262
12288,3169,3267
12300,3178,3253
12312,3184,3241
12324,3189,3224
12336,3190,3213
12347,3178,3208
12359,3173,3225
12371,3185,3237
12383,3197,3239
12395,3208,3240
12407,3232,3256
12418,3245,3263
12430,3273,3270
12442,3288,3280
12454,3308,3299
12466,3320,3313
12478,3332,3339
12489,3348,3378
12501,3346,3400
12513,3334,3417
12525,3326,3437
12537,3313,3460
12549,3312,3477
12560,3295,3477
12572,3288,3500
12584,3266,3498
12596,3231,3492
12608,3212,3477
12620,3207,3468
12631,3192,3470
12643,3171,3458
12655,3153,3429
12667,3150,3411
12679,3149,3388
12691,3145,3367
12702,3153,3355
12714,3166,3339
12726,3174,3333
12738,3183,3327
12750,3206,3328
12761,3222,3318
12773,3227,3322
12785,3228,3321
12797,3241,3330
12809,3243,3331
12821,3240,3317
12833,3244,3321
12844,3251,3318
12856,3241,3333
12868,3239,3347
12880,3221,3348
12892,3202,3351
12904,3187,3344
12915,3177,3332
12927,3175,3323
12939,3153,3318
12951,3159,3316
12963,3163,3318
12974,3164,3316
12986,3182,3306
12998,3191,3289
13010,3197,3291
13022,3199,3289
13034,3194,3278
13045,3185,3267
13057,3184,3253
13069,3171,3244
13081,3181,3246
13093,3176,3243
13105,3186,3242
13116,3194,3249
13128,3195,3245
13140,3188,3247
13152,3185,3243
13164,3186,3243
13176,3176,3239
13187,3181,3248
13199,3180,3257
13211,3177,3261
13223,3183,3259
13235,3190,3255
13247,3194,3260
13258,3183,3248
13270,3184,3229
13282,3205,3220
13294,3202,3203
13306,3207,3217
13318,3223,3232
13329,3240,3252
13341,3258,3278
13353,3252,3286
13365,3260,3299
13377,3274,3317
13388,3299,3337
13400,3313,3388
13412,3316,3419
13424,3309,3450
13436,3295,3491
13448,3286,3517
13459,3254,3531
13471,3248,3549
13483,3235,3552
13495,3234,3545
13507,3209,3545
13519,3202,3536
13530,3198,3508
13542,3192,3490
13554,3178,3469
13566,3171,3450
13578,3178,3430
13590,3182,3411
13601,3192,3406
13613,3197,3401
13625,3197,3376
13637,3203,3369
13649,3198,3361
13661,3211,3355
13672,3224,3351
13684,3227,3335
13696,3224,3323
13708,3218,3323
13720,3210,3321
13732,3206,3318
13743,3206,3321
13755,3209,3342
13767,3214,3350
13779,3209,3342
13791,3197,3350
13803,3190,3349
13814,3188,3367
13826,3191,3372
13838,3198,3373
13850,3205,3380
13862,3200,3374
13874,3204,3364
13885,3203,3351
13897,3204,3339
13909,3196,3334
13921,3200,3319
13933,3191,3302
13945,3190,3291
13956,3186,3279
13968,3188,3265
13980,3181,3256
13992,3182,3255
14004,3189,3256
14015,3182,3256
14027,3187,3249
14039,3173,3235
14051,3163,3242
14063,3155,3242
14075,3166,3253
14086,3173,3249
14098,3187,3256
14110,3188,3262
14122,3207,3267
14134,3228,3285
14146,3244,3281
14157,3275,3283
14169,3294,3274
14181,3298,3270
14193,3301,3261
14205,3292,3258
14217,3280,3254
14228,3274,3252
14240,3280,3260
14252,3279,3278
14264,3269,3294
14276,3273,3311
14288,3276,3328
14299,3280,3357
14311,3288,3375
14323,3286,3401
14335,3283,3419
14347,3280,3456
14359,3264,3477
14370,3255,3506
14382,3250,3519
14394,3262,3525
14406,3258,3531
14418,3262,3526
14430,3250,3516
14441,3264,3496
14453,3249,3479
14465,3241,3458
14477,3240,3449
14489,3243,3440
14501,3243,3418
14512,3230,3403
14524,3212,3400
14536,3212,3387
14548,3211,3365
14560,3207,3355
14572,3215,3348
14583,3229,3333
14595,3248,3342
14607,3261,3335
14619,3262,3332
14631,3265,3328
14643,3255,3321
14654,3256,3327
14666,3253,3332
14678,3248,3328
14690,3242,3331
14702,3247,3328
14714,3230,3340
14725,3241,3348
14737,3229,3354
14749,3226,3347
14761,3229,3347
14773,3223,3333
14785,3224,3331
14796,3239,3330
14808,3233,3324
14820,3236,3307
14832,3231,3304
14844,3218,3297
14855,3210,3284
14867,3207,3285
14879,3196,3259
14891,3202,3243
14903,3202,3232
14915,3201,3222
14926,3197,3206
14938,3188,3205
14950,3191,3207
14962,3195,3205
14974,3208,3213
14986,3199,3200
14997,3192,3207
15009,3210,3210
15021,3206,3215
15033,3198,3218
15045,3199,3228
15057,3209,3231
15068,3208,3222
15080,3221,3232
15092,3239,3240
15104,3261,3237
15116,3260,3226
15128,3261,3225
15139,3262,3228
15151,3278,3226
15163,3297,3233
15175,3309,3258
15187,3310,3274
15199,3309,3275
15210,3303,3299
15222,3312,3312
15234,3304,3343
15246,3302,3369
15258,3283,3392
15270,3281,3416
15281,3262,3442
15293,3255,3454
15305,3255,3471
15317,3265,3490
15329,3276,3490
15341,3269,3469
15352,3262,3461
15364,3263,3448
15376,3263,3436
15388,3250,3397
15400,3250,3401
15412,3248,3384
15423,3256,3360
15435,3255,3334
15447,3251,3326
15459,3253,3311
15471,3244,3299
15483,3244,3308
15494,3247,3300
15506,3243,3291
15518,3249,3285
15530,3251,3275
15542,3253,3272
15554,3250,3271
15565,3236,3265
15577,3235,3260
15589,3224,3271
15601,3227,3269
15613,3242,3275
15624,3247,3284
15636,3262,3270
15648,3261,3273
15660,3252,3268
15672,3264,3268
15684,3267,3263
15695,3286,3253
15707,3273,3240
15719,3271,3238
15731,3264,3240
15743,3256,3241
15755,3248,3236
15766,3249,3241
15778,3236,3231
15790,3223,3217
15802,3224,3229
15814,3209,3223
15826,3197,3223
15837,3197,3220
15849,3196,3218
15861,3206,3214
15873,3202,3205
15885,3192,3200
15897,3197,3211
15908,3207,3196
15920,3226,3197
15932,3245,3197
15944,3266,3194
15956,3287,3191
15968,3312,3193
15979,3345,3196
15991,3361,3180
16003,3362,3183
16015,3353,3185
16027,3348,3189
16039,3324,3183
16050,3310,3202
16062,3299,3192
16074,3282,3206
16086,3266,3229
16098,3264,3241
16110,3258,3252
16121,3262,3265
16133,3281,3284
16145,3312,3318
16157,3329,3333
16169,3341,3355
16181,3346,3368
16192,3359,3378
16204,3349,3391
16216,3347,3397
16228,3343,3399
16240,3359,3394
16252,3360,3392
16263,3365,3389
16275,3367,3384
16287,3372,3384
16299,3361,3375
16311,3357,3362
16322,3359,3348
16334,3347,3333
16346,3322,3313
16358,3300,3290
16370,3284,3270
16382,3278,3254
16393,3267,3230
16405,3249,3225
16417,3258,3232
16429,3263,3234
16441,3274,3225
16453,3281,3229
16464,3281,3222
16476,3267,3229
16488,3258,3223
16500,3259,3220
16512,3269,3232
16524,3282,3233
16535,3293,3251
16547,3287,3265
16559,3319,3270
16571,3326,3269
16583,3328,3268
16595,3328,3254
16606,3330,3256
16618,3325,3248
16630,3307,3230
16642,3297,3207
16654,3286,3192
16666,3277,3192
16678,3257,3177
16689,3244,3176
16701,3214,3161
16713,3216,3164
16725,3206,3160
16737,3189,3160
16749,3203,3158
16760,3208,3141
16772,3220,3145
16784,3222,3154
16796,3226,3148
16808,3239,3146
16820,3231,3155
16831,3237,3151
16843,3234,3139
16855,3238,3140
16867,3248,3143
16879,3262,3140
16891,3265,3131
16902,3287,3144
16914,3300,3151
16926,3302,3160
16938,3325,3170
16950,3332,3171
16962,3340,3177
16973,3327,3172
16985,3322,3173
16997,3308,3181
17009,3306,3183
17021,3294,3200
17033,3290,3225
17044,3292,3236
17056,3323,3249
17068,3340,3272
17080,3352,3274
17092,3372,3291
17104,3381,3299
17115,3378,3304
17127,3383,3311
17139,3376,3305
17151,3392,3307
17163,3390,3308
17175,3399,3305
17186,3395,3303
17198,3392,3289
17210,3389,3301
17222,3391,3303
17234,3386,3304
17246,3398,3310
17257,3399,3298
17269,3412,3277
17281,3401,3245
17293,3392,3242
17305,3386,3234
17316,3363,3222
17328,3344,3222
17340,3323,3225
17352,3305,3221
17364,3282,3210
17376,3281,3199
17387,3266,3200
17399,3252,3197
17411,3258,3185
17423,3262,3184
17435,3275,3181
17447,3283,3186
17458,3282,3175
17470,3294,3170
17482,3299,3188
17494,3290,3186
17506,3284,3195
17518,3272,3199
17529,3270,3212
17541,3266,3214
17553,3258,3209
17565,3253,3205
17577,3255,3196
17589,3250,3191
17600,3242,3190
17612,3244,3188
17624,3237,3175
17636,3234,3166
17648,3220,3150
17660,3221,3131
17671,3225,3125
17683,3230,3130
17695,3228,3128
17707,3234,3114
17719,3238,3115
17731,3232,3124
17742,3224,3119
17754,3222,3114
17766,3237,3120
17778,3237,3117
17790,3246,3113
17802,3251,3115
17813,3254,3109
17825,3255,3102
17837,3253,3101
17849,3248,3106
17861,3235,3107
17873,3236,3105
17884,3249,3113
17896,3260,3111
17908,3292,3127
17920,3305,3135
17932,3329,3166
17944,3340,3174
17955,3351,3193
17967,3354,3211
17979,3359,3254
17991,3362,3284
18003,3357,3310
18015,3355,3321
18026,3376,3336
18038,3371,3325
18050,3382,3330
18062,3387,3313
18074,3393,3296
18086,3391,3289
18097,3393,3276
18109,3390,3253
18121,3369,3251
18133,3346,3240
18145,3327,3226
18157,3317,3211
18168,3296,3206
18180,3277,3185
18192,3259,3182
18204,3241,3179
18216,3236,3169
18228,3233,3166
18239,3217,3169
18251,3225,3167
18263,3234,3164
18275,3252,3153
18287,3263,3153
18299,3267,3149
18310,3261,3155
18322,3267,3170
18334,3276,3173
18346,3281,3186
18358,3274,3196
18370,3269,3201
18381,3261,3194
18393,3264,3178
18405,3256,3188
18417,3260,3181
18429,3265,3183
18441,3259,3191
18452,3271,3188
18464,3285,3184
18476,3269,3187
18488,3258,3175
18500,3245,3182
18512,3229,3176
18523,3232,3179
18535,3228,3180
18547,3215,3162
18559,3223,3166
18571,3212,3163
18583,3194,3157
18594,3188,3153
18606,3188,3142
18618,3175,3134
18630,3178,3128
18642,3191,3116
18654,3188,3117
18665,3197,3099
18677,3210,3077
18689,3228,3072
18701,3251,3068
18713,3278,3078
18725,3300,3095
18736,3312,3112
18748,3312,3124
18760,3305,3134
18772,3293,3136
18784,3292,3150
18795,3286,3175
18807,3291,3189
18819,3285,3201
18831,3279,3219
18843,3291,3241
18855,3288,3249
18866,3296,3264
18878,3324,3281
18890,3335,3287
18902,3366,3304
18914,3369,3312
18926,3385,3307
18937,3391,3304
18949,3400,3301
18961,3406,3304
18973,3404,3293
18985,3396,3278
18997,3371,3273
19008,3355,3249
19020,3315,3231
19032,3274,3219
19044,3248,3207
19056,3240,3209
19068,3230,3200
19079,3226,3205
19091,3213,3185
19103,3211,3181
19115,3198,3186
19127,3198,3199
19139,3206,3203
19150,3212,3205
19162,3213,3204
19174,3223,3202
19186,3238,3196
19198,3233,3185
19210,3242,3171
19221,3246,3164
19233,3242,3167
19245,3252,3156
19257,3241,3147
19269,3243,3154
19281,3234,3158
19292,3230,3163
19304,3228,3172
19316,3234,3172
19328,3238,3175
19340,3228,3186
19352,3233,3190
19363,3228,3181
19375,3231,3199
19387,3233,3190
19399,3227,3185
19411,3209,3178
19423,3189,3173
19434,3167,3177
19446,3168,3178
19458,3165,3176
19470,3180,3166
19482,3179,3147
19494,3180,3150
19505,3166,3139
19517,3163,3133
19529,3159,3151
19541,3160,3143
19553,3171,3150
19564,3186,3147
19576,3184,3140
19588,3212,3125
19600,3218,3134
19612,3246,3146
19624,3268,3151
19635,3282,3163
19647,3277,3166
19659,3288,3176
19671,3288,3197
19683,3281,3218
19695,3282,3240
19706,3276,3262
19718,3277,3275
19730,3288,3296
19742,3296,3297
19754,3298,3307
19766,3299,3314
19777,3303,3307
19789,3297,3291
19801,3305,3287
19813,3305,3277
19825,3313,3264
19837,3308,3253
19848,3315,3239
19860,3309,3234
19872,3302,3224
19884,3273,3219
19896,3254,3205
19908,3250,3198
19919,3226,3191
19931,3207,3177
19943,3192,3157
19955,3177,3148
19967,3176,3148
19979,3168,3138
19990,3163,3137
20002,3164,3157
20014,3165,3176
20026,3151,3182
20038,3151,3185
20050,3154,3198
20061,3172,3205
20073,3173,3210
20085,3176,3212
20097,3177,3213
20109,3182,3205
20121,3185,3201
20132,3183,3186
20144,3194,3192
20156,3192,3191
20168,3204,3176
20180,3203,3175
20192,3195,3167
20203,3189,3168
20215,3170,3159
20227,3156,3174
20239,3160,3170
20251,3150,3168
20263,3140,3170
20274,3138,3171
20286,3130,3173
20298,3124,3167
20310,3113,3155
20322,3117,3168
20334,3143,3163
20345,3158,3166
20357,3155,3157
20369,3163,3143
20381,3166,3136
20393,3167,3133
20405,3162,3131
20416,3166,3132
20428,3162,3134
20440,3193,3136
20452,3210,3149
20464,3225,3157
20476,3248,3184
20487,3266,3201
20499,3273,3229
20511,3289,3252
20523,3312,3269
20535,3314,3289
20547,3318,3305
20558,3323,3306
20570,3305,3292
20582,3288,3293
20594,3279,3295
20606,3254,3303
20618,3250,3304
20629,3242,3294
20641,3245,3284
20653,3219,3262
20665,3223,3247
20677,3233,3236
20689,3233,3224
20700,3218,3217
20712,3218,3211
20724,3202,3215
20736,3186,3202
20748,3182,3203
20760,3175,3205
20771,3174,3197
20783,3140,3197
20795,3147,3188
20807,3134,3185
20819,3128,3187
20831,3116,3210
20842,3123,3210
20854,3132,3219
20866,3151,3219
20878,3147,3204
20890,3162,3198
20902,3155,3190
20913,3153,3193
20925,3144,3182
20937,3143,3186
20949,3140,3182
20961,3132,3177
20973,3128,3186
20984,3126,3177
20996,3132,3170
21008,3140,3177
21020,3150,3179
21032,3138,3179
21044,3127,3180
21056,3126,3181
21067,3115,3175
21079,3104,3165
21091,3097,3174
21103,3105,3176
21115,3118,3174
21127,3120,3164
21138,3129,3164
21150,3130,3160
21162,3133,3141
21174,3136,3136
21186,3141,3128
21198,3140,3132
21209,3141,3136
21221,3153,3139
21233,3151,3140
21245,3162,3155
21257,3170,3169
21269,3179,3164
21280,3194,3182
21292,3225,3191
21304,3265,3208
21316,3277,3224
21328,3275,3235
21340,3274,3251
21351,3265,3259
21363,3253,3281
21375,3252,3292
21387,3237,3297
21399,3216,3309
21411,3202,3305
21422,3201,3309
21434,3201,3316
21446,3197,3316
21458,3196,3306
21470,3197,3293
21482,3194,3283
21493,3186,3256
21505,3167,3238
21517,3167,3227
21529,3147,3222
21541,3145,3209
21553,3132,3194
21564,3119,3186
21576,3118,3192
21588,3109,3189
21600,3107,3184
21612,3098,3188
21624,3105,3193
21635,3118,3200
21647,3126,3203
21659,3133,3211
21671,3149,3206
21683,3157,3223
21695,3154,3213
21706,3151,3220
21718,3152,3230
21730,3172,3230
21742,3185,3234
21754,3198,3246
21766,3191,3251
21777,3200,3241
21789,3214,3246
21801,3228,3235
21813,3231,3222
21825,3222,3218
21837,3216,3224
21848,3218,3223
21860,3213,3223
21872,3205,3226
21884,3198,3220
21896,3178,3214
21908,3153,3209
21920,3118,3205
21931,3101,3188
21943,3094,3173
21955,3082,3161
21967,3085,3150
21979,3089,3159
21991,3100,3147
22002,3115,3154
22014,3136,3160
22026,3156,3161
22038,3177,3184
22050,3196,3191
22062,3215,3207
22073,3224,3200
22085,3235,3199
22097,3231,3196
22109,3238,3206
22121,3244,3218
22133,3254,3233
22144,3253,3257
22156,3242,3271
22168,3244,3294
22180,3250,3314
22192,3248,3328
22204,3249,3339
22215,3252,3351
22227,3260,3369
22239,3248,3369
22251,3241,3353
22263,3216,3342
22274,3218,3336
22286,3206,3320
22298,3198,3318
22310,3196,3305
22322,3194,3295
22334,3191,3285
22345,3190,3269
22357,3168,3268
22369,3157,3262
22381,3153,3256
22393,3146,3242
22405,3146,3241
22416,3162,3250
22428,3162,3250
22440,3176,3248
22452,3190,3253
22464,3200,3236
22476,3220,3228
22487,3224,3221
22499,3213,3219
22511,3202,3212
22523,3200,3218
22535,3201,3216
22547,3194,3214
22558,3198,3221
22570,3186,3223
22582,3180,3224
22594,3192,3239
22606,3188,3239
22618,3187,3250
22629,3183,3255
22641,3169,3265
22653,3167,3257
22665,3160,3243
22677,3156,3235
22689,3163,3227
22700,3170,3216
22712,3165,3219
22724,3169,3220
22736,3160,3213
22748,3157,3206
22760,3152,3201
22772,3148,3194
22783,3155,3193
22795,3165,3190
22807,3171,3179
22819,3173,3171
22831,3173,3160
22843,3172,3170
22854,3174,3169
22866,3178,3171
22878,3187,3166
22890,3195,3171
22902,3198,3180
22914,3210,3176
22925,3217,3188
22937,3223,3187
22949,3237,3185
22961,3253,3197
22973,3269,3214
22985,3277,3247
22996,3284,3270
23008,3297,3296
23020,3286,3307
23032,3274,3322
23044,3274,3343
23056,3264,3350
23067,3255,3353
23079,3252,3364
23091,3246,3367
23103,3243,3365
23115,3240,3371
23127,3231,3374
23138,3225,3371
23150,3214,3369
23162,3209,3358
23174,3188,3331
23186,3189,3305
23198,3198,3290
23209,3190,3282
23221,3188,3269
23233,3179,3270
23245,3179,3263
23257,3171,3252
23269,3184,3250
23280,3180,3243
23292,3177,3231
23304,3177,3241
23316,3176,3247
23328,3179,3247
23340,3166,3252
23351,3170,3253
23363,3159,3258
23375,3148,3248
23387,3148,3257
23399,3143,3257
23411,3135,3249
23422,3144,3238
23434,3136,3246
23446,3146,3242
23458,3153,3241
23470,3161,3229
23482,3156,3219
23493,3154,3207
23505,3151,3199
23517,3164,3198
23529,3168,3206
23541,3173,3218
23553,3166,3220
23564,3170,3226
23576,3166,3234
23588,3164,3229
23600,3156,3217
23612,3160,3208
23624,3127,3195
23636,3133,3189
23647,3145,3177
23659,3157,3174
23671,3158,3160
23683,3155,3152
23695,3142,3133
23707,3156,3138
23718,3164,3134
23730,3173,3149
23742,3199,3156
23754,3208,3165
23766,3217,3158
23777,3229,3167
23789,3247,3182
23801,3258,3182
23813,3256,3200
23825,3280,3208
23837,3285,3209
23848,3297,3221
23860,3300,3227
23872,3292,3248
23884,3291,3279
23896,3300,3305
23908,3284,3326
23919,3273,3348
23931,3262,3370
23943,3253,3378
23955,3239,3392
23967,3231,3400
23979,3217,3411
23990,3195,3404
24002,3180,3386
24014,3167,3370
24026,3163,3362
24038,3155,3346
24050,3156,3345
24061,3139,3318
24073,3135,3301
24085,3121,3287
24097,3130,3275
24109,3130,3253
24121,3127,3247
24132,3141,3236
24144,3147,3229
24156,3155,3235
24168,3161,3232
24180,3161,3240
24192,3165,3257
24203,3169,3254
24215,3167,3251
24227,3163,3250
24239,3167,3259
24251,3172,3254
24263,3196,3267
24275,3216,3253
24286,3244,3268
24298,3253,3259
24310,3262,3250
24322,3272,3249
24334,3259,3239
24346,3257,3229
24357,3256,3229
24369,3247,3228
24381,3221,3241
24393,3198,3239
24405,3185,3237
24417,3171,3240
24428,3155,3232
24440,3165,3229
24452,3163,3212
24464,3167,3216
24476,3155,3219
24488,3136,3216
24499,3123,3209
24511,3126,3216
24523,3125,3210
24535,3122,3208
24547,3134,3197
24559,3157,3198
24570,3176,3198
24582,3200,3196
24594,3223,3198
24606,3247,3203
24618,3270,3201
24630,3281,3215
24641,3288,3210
24653,3290,3213
24665,3291,3232
24677,3274,3243
24689,3270,3248
24701,3270,3259
24712,3264,3257
24724,3252,3271
24736,3256,3280
24748,3259,3291
24760,3268,3315
24772,3264,3327
24783,3261,3336
24795,3257,3362
24807,3238,3364
24819,3233,3379
24831,3217,3376
24843,3203,3376
24854,3198,3380
24866,3216,3371
24878,3223,3373
24890,3212,3367
24902,3198,3360
24914,3178,3344
24926,3170,3341
24937,3158,3316
24949,3170,3302
24961,3153,3296
24973,3157,3287
24985,3159,3269
24997,3164,3277
25008,3168,3276
25020,3170,3274
25032,3180,3270
25044,3208,3278
25056,3222,3270
25068,3232,3262
25079,3239,3271
25091,3224,3264
25103,3223,3271
25115,3220,3282
25127,3227,3289
25139,3221,3290
25150,3213,3293
25162,3199,3290
25174,3203,3283
25186,3195,3282
25198,3201,3268
25210,3217,3255
25221,3207,3247
25233,3216,3263
25245,3216,3247
25257,3213,3244
25269,3208,3238
25281,3203,3246
25292,3188,3230
25304,3180,3225
25316,3178,3232
25328,3170,3238
25340,3162,3236
25352,3157,3233
25363,3160,3226
25375,3165,3225
25387,3176,3206
25399,3174,3208
25411,3173,3199
25423,3186,3198
25434,3202,3205
25446,3201,3203
25458,3217,3203
25470,3215,3205
25482,3237,3207
25494,3241,3205
25505,3247,3206
25517,3270,3204
25529,3277,3208
25541,3293,3207
25553,3305,3228
25565,3317,3244
25576,3319,3271
25588,3318,3298
25600,3309,3317
25612,3290,3326
25624,3272,3356
25636,3269,3391
25647,3269,3404
25659,3259,3411
25671,3232,3413
25683,3223,3423
25695,3218,3413
25707,3217,3416
25718,3210,3403
25730,3217,3402
25742,3222,3402
25754,3230,3390
25766,3229,3364
25778,3222,3361
25789,3203,3355
25801,3195,3336
25813,3188,3324
25825,3188,3318
25837,3181,3323
25849,3179,3326
25861,3172,3325
25872,3182,3333
25884,3191,3314
25896,3208,3308
25908,3218,3286
25920,3234,3276
25932,3235,3265
25943,3230,3263
25955,3235,3274
25967,3225,3271
25979,3226,3268
25991,3227,3274
26003,3214,3268
26014,3202,3275
26026,3196,3279
26038,3190,3288
26050,3175,3283
26062,3156,3268
26074,3165,3266
26085,3164,3250
26097,3173,3239
26109,3177,3235
26121,3183,3232
26133,3189,3220
26145,3190,3213
26156,3189,3199
26168,3182,3197
26180,3168,3197
26192,3158,3203
26204,3155,3184
26216,3150,3193
26227,3141,3179
26239,3153,3193
26251,3172,3173
26263,3169,3176
26275,3174,3175
26287,3167,3170
26298,3182,3171
26310,3188,3176
26322,3200,3173
26334,3221,3180
26346,3229,3195
26358,3231,3189
26369,3255,3193
26381,3289,3208
26393,3302,3227
26405,3326,3246
26417,3327,3272
26429,3342,3300
26440,3329,3322
26452,3321,3344
26464,3318,3365
26476,3308,3392
26488,3293,3403
26500,3296,3425
26511,3285,3442
26523,3272,3435
26535,3261,3444
26547,3250,3449
26559,3233,3451
26571,3205,3426
26582,3187,3415
26594,3164,3393
26606,3160,3379
26618,3157,3356
26630,3132,3336
26642,3126,3298
26654,3124,3271
26665,3129,3259
26677,3135,3230
26689,3162,3214
26701,3167,3216
26713,3176,3205
26725,3179,3190
26736,3164,3187
26748,3172,3192
26760,3178,3228
26772,3184,3230
26784,3177,3225
26796,3188,3238
26807,3201,3262
26819,3201,3278
26831,3231,3294
26843,3241,3290
26855,3253,3289
26867,3259,3278
26878,3265,3268
26890,3273,3262
26902,3271,3273
26914,3257,3278
26926,3250,3273
26938,3234,3277
26949,3224,3268
26961,3213,3253
26973,3194,3245
26985,3178,3240
26997,3170,3226
27009,3155,3214
27020,3152,3209
27032,3147,3199
27044,3158,3200
27056,3165,3192
27068,3171,3191
27080,3194,3179
27091,3212,3172
27103,3231,3179
27115,3245,3170
27127,3271,3177
27139,3287,3175
27151,3305,3181
27162,3317,3190
27174,3323,3204
27186,3323,3221
27198,3312,3236
27210,3294,3269
27222,3278,3281
27233,3277,3297
27245,3283,3305
27257,3273,3324
27269,3273,3338
27281,3262,3361
27293,3254,3370
27304,3253,3380
27316,3272,3399
27328,3264,3390
27340,3270,3393
27352,3253,3400
27364,3251,3383
27375,3239,3376
27387,3242,3357
27399,3227,3333
27411,3221,3308
27423,3218,3284
27435,3205,3274
27446,3213,3274
27458,3206,3267
27470,3200,3263
27482,3217,3247
27494,3225,3261
27506,3220,3255
27517,3219,3270
27529,3225,3270
27541,3218,3264
27553,3218,3249
27565,3208,3259
27577,3220,3259
27588,3230,3257
27600,3237,3253
27612,3239,3259
27624,3246,3266
27636,3258,3272
27648,3255,3267
27659,3254,3258
27671,3254,3262
27683,3258,3262
27695,3261,3252
27707,3246,3255
27719,3256,3241
27730,3242,3236
27742,3242,3235
27754,3225,3229
27766,3204,3222
27778,3198,3208
27790,3196,3199
27801,3190,3191
27813,3186,3191
27825,3185,3177
27837,3187,3175
27849,3193,3181
27861,3195,3168
27872,3205,3164
27884,3223,3169
27896,3217,3170
27908,3217,3159
27920,3226,3164
27932,3241,3163
27943,3254,3155
27955,3270,3161
27967,3302,3168
27979,3316,3173
27991,3327,3206
28003,3341,3236
28014,3363,3278
28026,3364,3318
28038,3356,3342
28050,3357,3363
28062,3376,3393
28074,3358,3404
28086,3336,3416
28097,3316,3417
28109,3308,3424
28121,3293,3416
28133,3293,3400
28145,3287,3373
28157,3278,3357
28168,3281,3346
28180,3288,3334
28192,3288,3322
28204,3278,3305
28216,3285,3292
28228,3285,3277
28239,3284,3271
28251,3282,3260
28263,3288,3252
28275,3279,3241
28287,3275,3237
28299,3277,3246
28310,3273,3255
28322,3270,3253
28334,3267,3260
28346,3267,3259
28358,3255,3244
28370,3260,3258
28381,3267,3252
28393,3258,3237
28405,3244,3235
28417,3238,3224
28429,3225,3212
28441,3233,3223
28452,3238,3229
28464,3231,3219
28476,3245,3202
28488,3240,3192
28500,3250,3173
28512,3244,3174
28523,3264,3170
28535,3271,3167
28547,3256,3171
28559,3248,3164
28571,3244,3158
28583,3225,3177
28594,3202,3176
28606,3187,3175
28618,3177,3173
28630,3176,3174
28642,3178,3172
28654,3188,3162
28665,3200,3173
28677,3230,3183
28689,3253,3176
28701,3248,3173
28713,3255,3165
28725,3242,3155
28736,3235,3142
28748,3220,3129
28760,3223,3134
28772,3230,3136
28784,3245,3146
28796,3265,3167
28807,3284,3187
28819,3298,3206
28831,3314,3220
28843,3333,3249
28855,3348,3269
28867,3372,3296
28878,3390,3316
28890,3388,3333
28902,3404,3341
28914,3392,3347
28926,3385,3350
28938,3383,3350
28949,3375,3350
28961,3348,3328
28973,3331,3326
28985,3316,3308
28997,3314,3301
29009,3298,3285
29020,3301,3254
29032,3294,3238
29044,3281,3220
29056,3268,3218
29068,3262,3189
29080,3261,3193
29092,3253,3176
29103,3252,3180
29115,3250,3164
29127,3245,3155
29139,3257,3147
29151,3259,3164
29163,3273,3161
29174,3253,3182
29186,3245,3189
29198,3253,3181
29210,3259,3184
29222,3268,3181
29234,3275,3192
29245,3273,3185
29257,3265,3187
29269,3268,3195
29281,3257,3191
29293,3256,3189
29305,3256,3189
29316,3257,3177
29328,3263,3166
29340,3266,3166
29352,3252,3161
29364,3251,3157
29376,3241,3159
29387,3228,3168
29399,3222,3166
29411,3207,3155
29423,3196,3150
29435,3203,3157
29447,3201,3160
29458,3198,3165
29470,3192,3180
29482,3194,3180
29494,3201,3179
29506,3212,3161
29518,3229,3152
29529,3251,3155
29541,3275,3136
29553,3309,3128
29565,3327,3125
29577,3330,3124
29589,3345,3115
29600,3343,3122
29612,3362,3150
29624,3376,3174
29636,3377,3196
29648,3365,3228
29660,3389,3255
29671,3383,3275
29683,3385,3289
29695,3381,3306
29707,3382,3318
29719,3381,3323
29731,3380,3324
29742,3370,3324
29754,3367,3315
29766,3354,3304
29778,3361,3274
29790,3354,3252
29802,3347,3262
29814,3331,3240
29825,3323,3210
29837,3317,3201
29849,3303,3189
29861,3298,3180
29873,3278,3178
29885,3260,3179
29896,3268,3187
29908,3261,3195
29920,3260,3183
29932,3258,3181
29944,3263,3176
29956,3268,3171
29967,3267,3166
29979,3258,3163
29991,3253,3162
