timestamp_ms,ppg1,ppg2
0,3199,3203
12,3206,3230
23,3189,3248
35,3186,3233
47,3171,3238
59,3187,3242
71,3178,3222
82,3198,3202
94,3217,3210
106,3219,3184
118,3219,3176
130,3227,3178
141,3228,3171
153,3219,3185
165,3226,3177
177,3219,3157
189,3216,3144
201,3213,3161
212,3229,3175
224,3217,3198
236,3216,3234
248,3214,3251
260,3231,3293
271,3253,3305
283,3236,3300
295,3218,3292
307,3212,3286
319,3207,3256
331,3208,3220
342,3198,3199
354,3195,3174
366,3176,3164
378,3183,3164
390,3176,3144
402,3170,3123
413,3190,3136
425,3177,3125
437,3197,3136
449,3203,3134
461,3217,3176
472,3229,3176
484,3223,3199
496,3234,3222
508,3228,3229
520,3237,3253
532,3242,3242
543,3264,3266
555,3265,3250
567,3254,3242
579,3251,3226
591,3211,3184
603,3223,3210
614,3212,3222
626,3226,3245
638,3228,3250
650,3206,3227
662,3222,3244
673,3201,3201
685,3214,3202
697,3213,3201
709,3209,3224
721,3197,3218
733,3192,3225
744,3201,3244
756,3202,3231
768,3217,3238
780,3266,3246
792,3278,3237
803,3294,3248
815,3290,3246
827,3297,3253
839,3299,3250
851,3301,3243
863,3321,3245
874,3319,3235
886,3316,3239
898,3328,3225
910,3369,3230
922,3379,3217
934,3398,3219
945,3422,3236
957,3404,3213
969,3431,3232
981,3461,3244
993,3477,3244
1004,3482,3222
1016,3507,3225
1028,3560,3250
1040,3588,3246
1052,3619,3259
1064,3640,3278
1075,3640,3266
1087,3660,3271
1099,3666,3264
1111,3676,3288
1123,3683,3279
1135,3679,3273
1146,3689,3288
1158,3685,3269
1170,3684,3258
1182,3672,3237
1194,3688,3248
1205,3676,3245
1217,3667,3257
1229,3667,3270
1241,3632,3282
1253,3591,3277
1265,3549,3281
1276,3516,3302
1288,3476,3280
1300,3445,3275
1312,3426,3271
1324,3420,3277
1336,3411,3287
1347,3395,3286
1359,3394,3283
1371,3382,3269
1383,3372,3257
1395,3381,3266
1406,3369,3259
1418,3346,3268
1430,3348,3281
1442,3310,3270
1454,3262,3276
1466,3246,3274
1477,3231,3307
1489,3197,3318
1501,3189,3368
1513,3170,3384
1525,3142,3373
1537,3124,3379
1548,3108,3357
1560,3089,3334
1572,3065,3310
1584,3053,3305
1596,3056,3314
1608,3028,3292
1619,3039,3318
1631,3043,3332
1643,3060,3362
1655,3046,3359
1667,3049,3370
1678,3041,3355
1690,3004,3327
1702,2987,3334
1714,2974,3338
1726,2943,3312
1738,2918,3319
1749,2879,3316
1761,2868,3312
1773,2834,3287
1785,2814,3285
1797,2803,3270
1809,2795,3266
1820,2784,3256
1832,2773,3231
1844,2787,3241
1856,2770,3221
1868,2759,3240
1880,2762,3214
1891,2793,3224
1903,2837,3235
1915,2877,3227
1927,2934,3249
1939,2974,3250
1950,3015,3222
1962,3093,3231
1974,3147,3231
1986,3222,3235
1998,3255,3216
2010,3286,3238
2021,3304,3239
2033,3301,3249
2045,3333,3258
2057,3350,3258
2069,3368,3266
2081,3366,3255
2092,3358,3246
2104,3369,3237
2116,3352,3215
2128,3348,3221
2140,3319,3209
2152,3302,3191
2163,3288,3177
2175,3277,3161
2187,3216,3138
2199,3196,3130
2211,3198,3146
2223,3196,3132
2234,3184,3105
2246,3203,3080
2258,3191,3056
2270,3190,3067
2282,3195,3056
2294,3232,3087
2305,3240,3128
2317,3247,3153
2329,3258,3214
2341,3255,3240
2353,3264,3258
2364,3292,3250
2376,3320,3284
2388,3307,3270
2400,3303,3257
2412,3323,3277
2424,3308,3257
2435,3310,3275
2447,3294,3260
2459,3283,3263
2471,3277,3259
2483,3265,3239
2495,3265,3227
2506,3259,3200
2518,3248,3188
2530,3255,3192
2542,3258,3207
2554,3236,3212
2566,3224,3203
2577,3225,3224
2589,3207,3211
2601,3205,3192
2613,3218,3168
2625,3225,3166
2636,3267,3157
2648,3248,3151
2660,3271,3167
2672,3232,3152
2684,3231,3166
2696,3247,3190
2707,3239,3211
2719,3249,3210
2731,3237,3185
2743,3252,3197
2755,3234,3203
2767,3224,3192
2778,3222,3184
2790,3205,3187
2802,3212,3190
2814,3214,3188
2826,3236,3209
2838,3223,3219
2849,3216,3200
2861,3225,3209
2873,3223,3195
2885,3221,3209
2897,3248,3208
2909,3253,3215
2920,3267,3222
2932,3261,3213
2944,3293,3242
2956,3294,3238
2968,3258,3243
2980,3254,3225
2991,3246,3225
3003,3221,3216
3015,3200,3199
3027,3201,3206
3039,3196,3204
3051,3179,3196
3062,3210,3199
3074,3214,3215
3086,3218,3210
3098,3223,3215
3110,3240,3219
3122,3251,3222
3133,3251,3203
3145,3247,3190
3157,3249,3198
3169,3238,3197
3181,3232,3180
3193,3173,3133
3204,3187,3145
3216,3189,3132
3228,3193,3156
3240,3187,3169
3252,3199,3195
3263,3231,3205
3275,3249,3222
3287,3244,3218
3299,3222,3204
3311,3221,3216
3323,3208,3210
3334,3194,3199
3346,3210,3195
3358,3212,3206
3370,3206,3193
3382,3190,3178
3394,3195,3194
3405,3195,3188
3417,3190,3181
3429,3202,3176
3441,3192,3175
3453,3178,3188
3465,3182,3189
3476,3188,3225
3488,3182,3220
3500,3155,3211
3512,3162,3207
3524,3149,3206
3536,3154,3194
3547,3169,3182
3559,3195,3183
3571,3185,3183
3583,3170,3171
3595,3172,3190
3606,3159,3176
3618,3157,3160
3630,3159,3161
3642,3160,3180
3654,3169,3166
3666,3161,3144
3677,3133,3115
3689,3189,3136
3701,3214,3164
3713,3233,3174
3725,3190,3165
3737,3186,3192
3748,3206,3197
3760,3219,3216
3772,3195,3217
3784,3186,3225
3796,3195,3232
3808,3184,3221
3819,3196,3216
3831,3195,3200
3843,3217,3218
3855,3245,3209
3867,3240,3209
3879,3257,3211
3890,3238,3198
3902,3231,3180
3914,3194,3172
3926,3205,3189
3938,3199,3190
3950,3201,3198
3961,3206,3214
3973,3203,3203
3985,3199,3202
3997,3188,3197
4009,3177,3199
4020,3156,3173
4032,3163,3155
4044,3172,3187
4056,3179,3202
4068,3169,3193
4080,3173,3184
4091,3200,3193
4103,3207,3185
4115,3191,3171
4127,3172,3174
4139,3168,3152
4151,3177,3160
4162,3190,3179
4174,3191,3172
4186,3161,3141
4198,3149,3137
4210,3163,3173
4222,3180,3180
4233,3175,3177
4245,3193,3203
4257,3179,3207
4269,3182,3203
4281,3170,3203
4293,3155,3200
4304,3163,3230
4316,3180,3241
4328,3193,3246
4340,3206,3266
4352,3201,3296
4364,3193,3305
4375,3195,3333
4387,3193,3350
4399,3161,3345
4411,3170,3363
4423,3154,3359
4434,3150,3346
4446,3159,3337
4458,3174,3342
4470,3182,3322
4482,3186,3289
4494,3208,3302
4505,3213,3280
4517,3217,3276
4529,3223,3266
4541,3248,3271
4553,3246,3288
4565,3234,3281
4576,3225,3283
4588,3215,3266
4600,3220,3271
4612,3211,3268
4624,3199,3267
4636,3191,3258
4647,3169,3239
4659,3176,3235
4671,3159,3213
4683,3155,3198
4695,3158,3182
4707,3157,3172
4718,3153,3142
4730,3140,3103
4742,3178,3125
4754,3180,3125
4766,3178,3107
4778,3191,3124
4789,3186,3102
4801,3189,3109
4813,3192,3110
4825,3180,3123
4837,3178,3155
4849,3177,3187
4860,3188,3240
4872,3188,3252
4884,3167,3267
4896,3186,3289
4908,3183,3282
4919,3171,3253
4931,3162,3236
4943,3181,3242
4955,3166,3242
4967,3172,3232
4979,3178,3249
4990,3191,3244
5002,3203,3242
5014,3192,3231
5026,3208,3244
5038,3222,3258
5050,3215,3265
5061,3217,3288
5073,3178,3276
5085,3165,3280
5097,3167,3277
5109,3178,3274
5121,3195,3253
5132,3196,3227
5144,3235,3244
5156,3234,3237
5168,3218,3238
5180,3209,3240
5192,3167,3225
5203,3150,3207
5215,3184,3218
5227,3232,3243
5239,3234,3227
5251,3231,3230
5262,3223,3239
5274,3186,3243
5286,3160,3222
5298,3111,3179
5310,3116,3208
5322,3128,3203
5333,3137,3206
5345,3162,3217
5357,3180,3219
5369,3200,3221
5381,3195,3202
5393,3192,3215
5404,3188,3201
5416,3167,3198
5428,3185,3212
5440,3159,3225
5452,3169,3230
5464,3169,3219
5475,3163,3221
5487,3164,3212
5499,3153,3189
5511,3159,3198
5523,3154,3201
5535,3152,3204
5546,3165,3217
5558,3158,3227
5570,3175,3225
5582,3169,3222
5594,3195,3220
5605,3170,3187
5617,3176,3182
5629,3205,3203
5641,3207,3210
5653,3219,3207
5665,3207,3202
5676,3185,3182
5688,3173,3161
5700,3162,3139
5712,3181,3173
5724,3171,3163
5736,3178,3175
5747,3187,3196
5759,3189,3234
5771,3185,3245
5783,3167,3239
5795,3178,3245
5807,3175,3222
5818,3165,3216
5830,3180,3206
5842,3184,3233
5854,3182,3211
5866,3176,3201
5878,3197,3210
5889,3173,3198
5901,3191,3195
5913,3202,3187
5925,3204,3187
5937,3220,3208
5949,3199,3207
5960,3219,3243
5972,3219,3225
5984,3207,3216
5996,3200,3209
6008,3180,3207
6019,3181,3213
6031,3157,3190
6043,3144,3197
6055,3154,3202
6067,3158,3210
6079,3172,3221
6090,3182,3210
6102,3210,3213
6114,3210,3187
6126,3234,3218
6138,3227,3204
6150,3198,3175
6161,3213,3187
6173,3208,3171
6185,3198,3176
6197,3157,3123
6209,3158,3130
6221,3188,3161
6232,3177,3170
6244,3194,3200
6256,3202,3212
6268,3193,3222
6280,3186,3227
6292,3174,3232
6303,3163,3234
6315,3162,3207
6327,3186,3212
6339,3197,3182
6351,3177,3170
6363,3189,3171
6374,3174,3176
6386,3156,3189
6398,3141,3190
6410,3159,3212
6422,3166,3217
6434,3166,3224
6445,3179,3240
6457,3172,3249
6469,3167,3236
6481,3164,3210
6493,3169,3213
6504,3195,3207
6516,3201,3195
6528,3229,3205
6540,3220,3194
6552,3219,3205
6564,3212,3193
6575,3209,3213
6587,3198,3206
6599,3196,3197
6611,3227,3212
6623,3231,3214
6635,3250,3213
6646,3259,3220
6658,3248,3228
6670,3236,3218
6682,3203,3191
6694,3205,3207
6706,3176,3196
6717,3165,3192
6729,3125,3146
6741,3141,3154
6753,3170,3177
6765,3185,3199
6776,3202,3214
6788,3203,3209
6800,3211,3216
6812,3230,3216
6824,3213,3228
6836,3200,3233
6847,3185,3207
6859,3190,3212
6871,3184,3218
6883,3201,3202
6895,3226,3209
6907,3222,3210
6918,3198,3221
6930,3192,3219
6942,3193,3241
6954,3201,3243
6966,3194,3245
6978,3216,3259
6989,3210,3238
7001,3214,3232
7013,3235,3219
7025,3246,3214
7037,3250,3202
7049,3229,3191
7060,3238,3200
7072,3213,3198
7084,3192,3193
7096,3206,3198
7108,3206,3209
7120,3229,3207
7131,3216,3198
7143,3220,3218
7155,3223,3206
7167,3202,3200
7179,3203,3217
7190,3209,3213
7202,3160,3194
7214,3190,3180
7226,3217,3228
7238,3224,3222
7250,3211,3221
7261,3230,3246
7273,3238,3246
7285,3217,3241
7297,3216,3243
7309,3226,3254
7321,3228,3244
7332,3226,3228
7344,3240,3244
7356,3236,3248
7368,3221,3239
7380,3221,3224
7392,3203,3231
7403,3186,3217
7415,3185,3206
7427,3213,3209
7439,3231,3222
7451,3237,3224
7463,3254,3251
7474,3249,3254
7486,3267,3252
7498,3260,3239
7510,3285,3274
7522,3289,3257
7534,3286,3262
7545,3301,3270
7557,3299,3276
7569,3291,3281
7581,3280,3265
7593,3280,3246
7605,3267,3213
7616,3253,3195
7628,3252,3194
7640,3234,3196
7652,3237,3198
7664,3218,3182
7676,3211,3203
7687,3190,3210
7699,3147,3202
7711,3156,3216
7723,3140,3217
7735,3138,3216
7746,3149,3203
7758,3167,3209
7770,3175,3194
7782,3178,3169
7794,3197,3180
7806,3182,3174
7817,3180,3170
7829,3171,3174
7841,3184,3184
7853,3184,3197
7865,3172,3184
7877,3192,3205
7888,3166,3187
7900,3152,3178
7912,3158,3175
7924,3152,3173
7936,3151,3169
7948,3151,3169
7959,3180,3180
7971,3176,3183
7983,3169,3194
7995,3168,3195
8007,3185,3182
8019,3182,3184
8030,3176,3186
8042,3182,3209
8054,3172,3204
8066,3170,3195
8078,3190,3190
8090,3183,3180
8101,3160,3194
8113,3153,3185
8125,3164,3187
8137,3159,3189
8149,3158,3176
8161,3183,3201
8172,3175,3194
8184,3172,3194
8196,3178,3181
8208,3159,3174
8220,3152,3173
8231,3154,3186
8243,3180,3198
8255,3181,3192
8267,3178,3211
8279,3199,3215
8291,3178,3202
8302,3166,3181
8314,3176,3165
8326,3206,3195
8338,3190,3180
8350,3188,3199
8362,3203,3226
8373,3201,3224
8385,3186,3229
8397,3184,3220
8409,3174,3240
8421,3175,3220
8433,3172,3198
8444,3187,3212
8456,3183,3209
8468,3180,3207
8480,3177,3197
8492,3174,3195
8504,3163,3197
8515,3148,3189
8527,3160,3209
8539,3173,3207
8551,3180,3211
8563,3201,3220
8574,3206,3223
8586,3206,3219
8598,3201,3212
8610,3228,3222
8622,3215,3215
8634,3201,3204
8645,3200,3207
8657,3189,3210
8669,3191,3191
8681,3198,3175
8693,3200,3200
8705,3197,3183
8716,3184,3177
8728,3172,3167
8740,3182,3187
8752,3171,3192
8764,3167,3207
8776,3169,3203
8787,3180,3184
8799,3184,3174
8811,3192,3180
8823,3197,3194
8835,3186,3182
8847,3188,3182
8858,3199,3208
8870,3188,3220
8882,3170,3204
8894,3186,3225
8906,3174,3212
8918,3162,3207
8929,3156,3191
8941,3158,3206
8953,3151,3208
8965,3160,3215
8977,3190,3238
8989,3190,3238
9000,3213,3237
9012,3199,3238
9024,3195,3227
9036,3181,3218
9048,3175,3194
9060,3204,3210
9071,3199,3190
9083,3190,3175
9095,3194,3195
9107,3201,3221
9119,3198,3236
9131,3192,3244
9142,3206,3252
9154,3210,3239
9166,3211,3230
9178,3225,3223
9190,3201,3204
9201,3192,3175
9213,3187,3150
9225,3211,3175
9237,3203,3180
9249,3182,3172
9261,3174,3163
9272,3178,3161
9284,3184,3171
9296,3198,3173
9308,3208,3203
9320,3222,3219
9332,3219,3216
9343,3227,3225
9355,3221,3218
9367,3234,3214
9379,3221,3210
9391,3222,3218
9403,3221,3225
9414,3221,3207
9426,3242,3220
9438,3254,3201
9450,3252,3212
9462,3247,3216
9474,3229,3218
9485,3219,3215
9497,3194,3213
9509,3200,3217
9521,3180,3199
9533,3156,3180
9545,3167,3192
9556,3153,3183
9568,3143,3184
9580,3145,3174
9592,3161,3183
9604,3135,3140
9616,3140,3116
9627,3219,3167
9639,3230,3176
9651,3241,3208
9663,3259,3200
9675,3246,3210
9687,3242,3217
9698,3220,3218
9710,3212,3235
9722,3174,3203
9734,3168,3190
9746,3181,3193
9757,3188,3176
9769,3203,3177
9781,3215,3177
9793,3238,3200
9805,3231,3205
9817,3227,3199
9828,3241,3215
9840,3232,3213
9852,3225,3207
9864,3207,3183
9876,3204,3184
9888,3192,3157
9899,3189,3137
9911,3213,3148
9923,3229,3137
9935,3234,3121
9947,3221,3100
9959,3225,3079
9970,3211,3014
9982,3187,2964
9994,3209,2930
