timestamp_ms,ppg1,ppg2
0,3249,3240
11,3257,3235
23,3256,3232
35,3262,3209
47,3259,3210
59,3248,3191
70,3256,3187
82,3266,3196
94,3260,3195
106,3257,3206
118,3254,3208
130,3253,3217
141,3249,3218
153,3253,3220
165,3244,3226
177,3247,3240
189,3251,3241
200,3266,3242
212,3260,3250
224,3267,3263
236,3272,3251
248,3269,3251
260,3268,3241
271,3260,3232
283,3251,3228
295,3243,3214
307,3239,3206
319,3245,3204
330,3240,3204
342,3256,3203
354,3248,3202
366,3245,3195
378,3243,3201
390,3245,3199
401,3247,3201
413,3250,3199
425,3244,3197
437,3239,3206
449,3246,3201
460,3250,3205
472,3250,3204
484,3245,3196
496,3245,3204
508,3248,3203
520,3248,3193
531,3251,3191
543,3245,3184
555,3247,3189
567,3243,3191
579,3243,3181
590,3246,3180
602,3248,3174
614,3258,3176
626,3249,3176
638,3246,3188
650,3242,3182
661,3242,3195
673,3244,3188
685,3241,3180
697,3248,3190
709,3252,3204
720,3256,3220
732,3256,3231
744,3255,3247
756,3258,3262
768,3263,3287
780,3268,3316
791,3265,3330
803,3273,3343
815,3270,3355
827,3274,3367
839,3279,3359
851,3281,3351
862,3280,3335
874,3280,3325
886,3276,3312
898,3280,3294
910,3274,3281
921,3254,3268
933,3265,3256
945,3257,3241
957,3254,3226
969,3246,3211
981,3252,3208
992,3247,3200
1004,3243,3205
1016,3241,3202
1028,3246,3207
1040,3250,3216
1052,3251,3219
1063,3252,3226
1075,3258,3240
1087,3252,3241
1099,3260,3247
1111,3253,3240
1122,3264,3237
1134,3251,3242
1146,3252,3236
1158,3256,3243
1170,3247,3240
1182,3258,3235
1193,3257,3226
1205,3254,3224
1217,3250,3208
1229,3253,3209
1241,3248,3205
1252,3240,3202
1264,3237,3199
1276,3229,3192
1288,3237,3197
1300,3239,3197
1312,3237,3191
1323,3236,3193
1335,3236,3183
1347,3249,3185
1359,3252,3179
1371,3252,3178
1382,3247,3173
1394,3242,3172
1406,3242,3169
1418,3248,3176
1430,3245,3165
1442,3235,3168
1453,3240,3164
1465,3240,3176
1477,3240,3186
1489,3239,3187
1501,3244,3184
1513,3241,3184
1524,3246,3184
1536,3247,3190
1548,3245,3186
1560,3247,3193
1572,3244,3199
1583,3247,3206
1595,3241,3210
1607,3252,3220
1619,3255,3211
1631,3238,3218
1643,3242,3217
1654,3240,3212
1666,3248,3214
1678,3238,3211
1690,3248,3200
1702,3233,3197
1714,3237,3193
1725,3244,3197
1737,3241,3198
1749,3246,3200
1761,3244,3205
1773,3252,3234
1785,3245,3257
1796,3252,3274
1808,3257,3302
1820,3261,3319
1832,3258,3329
1844,3269,3349
1855,3261,3336
1867,3269,3345
1879,3264,3335
1891,3268,3331
1903,3264,3306
1915,3266,3295
1926,3275,3284
1938,3270,3262
1950,3269,3258
1962,3266,3239
1974,3260,3233
1986,3254,3225
1997,3259,3211
2009,3254,3200
2021,3264,3199
2033,3251,3195
2045,3244,3195
2056,3244,3190
2068,3250,3197
2080,3250,3201
2092,3245,3202
2104,3250,3221
2116,3248,3217
2127,3248,3227
2139,3246,3229
2151,3249,3233
2163,3247,3235
2175,3248,3234
2187,3243,3233
2198,3243,3225
2210,3250,3236
2222,3244,3226
2234,3243,3212
2246,3243,3206
2257,3244,3196
2269,3251,3207
2281,3249,3207
2293,3250,3201
2305,3248,3206
2317,3242,3204
2328,3244,3195
2340,3237,3196
2352,3222,3190
2364,3230,3187
2376,3228,3191
2388,3229,3184
2399,3233,3186
2411,3233,3194
2423,3243,3195
2435,3248,3200
2447,3245,3206
2459,3248,3204
2470,3256,3215
2482,3247,3203
2494,3248,3198
2506,3246,3198
2518,3241,3199
2529,3230,3193
2541,3234,3194
2553,3235,3193
2565,3235,3195
2577,3242,3194
2589,3237,3196
2600,3239,3182
2612,3234,3190
2624,3231,3180
2636,3230,3186
2648,3226,3174
2660,3228,3173
2671,3226,3175
2683,3237,3190
2695,3238,3186
2707,3237,3180
2719,3242,3185
2731,3236,3189
2742,3238,3199
2754,3247,3205
2766,3249,3212
2778,3253,3222
2790,3260,3238
2802,3257,3256
2813,3259,3283
2825,3261,3304
2837,3259,3315
2849,3268,3332
2861,3275,3347
2872,3272,3344
2884,3271,3340
2896,3261,3339
2908,3259,3341
2920,3256,3333
2932,3254,3324
2943,3249,3318
2955,3246,3302
2967,3240,3289
2979,3246,3271
2991,3245,3252
3003,3251,3239
3014,3243,3223
3026,3242,3209
3038,3248,3209
3050,3251,3207
3062,3245,3195
3073,3239,3195
3085,3236,3202
3097,3242,3203
3109,3235,3197
3121,3247,3211
3133,3239,3214
3144,3239,3219
3156,3249,3237
3168,3247,3238
3180,3253,3236
3192,3248,3241
3204,3248,3248
3215,3254,3241
3227,3245,3234
3239,3253,3237
3251,3257,3232
3263,3250,3222
3275,3250,3214
3286,3245,3216
3298,3242,3211
3310,3242,3207
3322,3235,3197
3334,3226,3203
3346,3233,3205
3357,3232,3190
3369,3240,3201
3381,3229,3195
3393,3228,3203
3405,3235,3203
3417,3229,3207
3428,3244,3204
3440,3249,3210
3452,3246,3208
3464,3242,3212
3476,3241,3213
3488,3240,3220
3499,3240,3206
3511,3239,3209
3523,3232,3203
3535,3235,3198
3547,3230,3185
3559,3230,3191
3570,3234,3206
3582,3237,3192
3594,3252,3194
3606,3248,3184
3618,3246,3177
3630,3237,3178
3641,3239,3181
3653,3240,3187
3665,3235,3181
3677,3234,3185
3689,3231,3186
3700,3232,3194
3712,3229,3192
3724,3223,3190
3736,3235,3193
3748,3238,3187
3760,3238,3183
3771,3238,3193
3783,3230,3190
3795,3228,3191
3807,3229,3190
3819,3229,3185
3831,3224,3187
3842,3231,3201
3854,3229,3198
3866,3234,3219
3878,3237,3232
3890,3242,3259
3902,3249,3282
3913,3258,3319
3925,3265,3347
3937,3270,3364
3949,3273,3371
3961,3275,3388
3972,3267,3398
3984,3262,3396
3996,3260,3385
4008,3259,3361
4020,3257,3345
4032,3258,3325
4043,3261,3313
4055,3266,3286
4067,3252,3275
4079,3247,3258
4091,3243,3245
4103,3244,3233
4114,3241,3217
4126,3237,3215
4138,3246,3223
4150,3235,3212
4162,3231,3215
4174,3243,3219
4185,3242,3216
4197,3237,3223
4209,3237,3231
4221,3238,3240
4233,3232,3228
4245,3231,3246
4256,3232,3240
4268,3229,3251
4280,3231,3253
4292,3227,3251
4304,3239,3257
4315,3227,3250
4327,3233,3242
4339,3241,3244
4351,3239,3240
4363,3242,3232
4375,3235,3227
4386,3234,3215
4398,3234,3218
4410,3240,3208
4422,3238,3194
4434,3236,3190
4446,3237,3188
4457,3240,3189
4469,3235,3179
4481,3232,3179
4493,3229,3186
4505,3231,3183
4516,3226,3184
4528,3225,3193
4540,3229,3198
4552,3230,3191
4564,3224,3190
4576,3229,3195
4587,3230,3186
4599,3239,3197
4611,3240,3190
4623,3245,3188
4635,3251,3182
4647,3246,3187
4658,3250,3185
4670,3247,3188
4682,3237,3188
4694,3236,3189
4706,3233,3190
4718,3236,3207
4729,3228,3205
4741,3222,3206
4753,3227,3217
4765,3226,3219
4777,3219,3215
4789,3221,3214
4800,3219,3205
4812,3221,3208
4824,3225,3202
4836,3222,3204
4848,3218,3192
4860,3230,3190
4871,3229,3181
4883,3240,3179
4895,3240,3180
4907,3250,3182
4919,3242,3180
4930,3250,3180
4942,3249,3175
4954,3245,3186
4966,3243,3190
4978,3244,3202
4990,3243,3226
5001,3245,3251
5013,3243,3277
5025,3249,3317
5037,3244,3351
5049,3251,3376
5061,3260,3399
5072,3253,3427
5084,3254,3429
5096,3249,3426
5108,3249,3410
5120,3246,3399
5131,3252,3372
5143,3245,3357
5155,3245,3325
5167,3242,3311
5179,3247,3301
5191,3244,3275
5202,3244,3268
5214,3243,3249
5226,3247,3243
5238,3237,3230
5250,3241,3229
5262,3237,3227
5273,3229,3219
5285,3238,3224
5297,3233,3229
5309,3241,3245
5321,3232,3242
5333,3238,3234
5344,3233,3243
5356,3226,3256
5368,3229,3264
5380,3230,3254
5392,3227,3255
5404,3239,3256
5415,3237,3251
5427,3241,3251
5439,3240,3251
5451,3244,3248
5463,3244,3238
5474,3238,3231
5486,3244,3235
5498,3239,3219
5510,3236,3216
5522,3234,3208
5534,3234,3209
5545,3227,3208
5557,3232,3204
5569,3231,3204
5581,3227,3199
5593,3225,3204
5605,3226,3208
5616,3213,3204
5628,3210,3203
5640,3224,3210
5652,3231,3219
5664,3240,3222
5676,3234,3230
5687,3243,3234
5699,3243,3229
5711,3247,3231
5723,3239,3229
5735,3242,3228
5747,3247,3212
5758,3241,3208
5770,3235,3220
5782,3236,3199
5794,3232,3193
5806,3232,3199
5817,3233,3202
5829,3234,3201
5841,3231,3196
5853,3230,3207
5865,3234,3207
5877,3236,3207
5888,3234,3216
5900,3235,3219
5912,3242,3226
5924,3232,3220
5936,3231,3218
5948,3241,3214
5959,3232,3219
5971,3228,3213
5983,3230,3213
5995,3226,3214
6007,3237,3225
6019,3242,3247
6030,3240,3266
6042,3241,3277
6054,3247,3321
6066,3257,3354
6078,3253,3371
6090,3269,3387
6101,3269,3411
6113,3271,3423
6125,3275,3422
6137,3281,3416
6149,3280,3417
6160,3282,3400
6172,3271,3390
6184,3260,3383
6196,3256,3371
6208,3244,3347
6220,3235,3324
6231,3232,3307
6243,3231,3284
6255,3218,3274
6267,3227,3264
6279,3221,3259
6291,3225,3259
6302,3225,3259
6314,3222,3257
6326,3226,3247
6338,3227,3258
6350,3224,3261
6362,3225,3264
6373,3229,3273
6385,3225,3279
6397,3225,3281
6409,3233,3272
6421,3229,3269
6432,3228,3258
6444,3227,3254
6456,3230,3250
6468,3231,3252
6480,3233,3240
6492,3225,3232
6503,3216,3231
6515,3221,3227
6527,3212,3225
6539,3219,3216
6551,3228,3220
6563,3235,3213
6574,3238,3209
6586,3227,3204
6598,3224,3204
6610,3225,3192
6622,3226,3177
6634,3220,3174
6645,3228,3165
6657,3217,3162
6669,3224,3176
6681,3226,3175
6693,3234,3168
6705,3227,3164
6716,3229,3185
6728,3227,3183
6740,3237,3189
6752,3223,3181
6764,3232,3193
6776,3237,3191
6787,3232,3189
6799,3228,3197
6811,3229,3192
6823,3242,3199
6835,3231,3201
6847,3238,3195
6858,3234,3198
6870,3237,3199
6882,3238,3199
6894,3236,3194
6906,3230,3198
6917,3229,3196
6929,3225,3193
6941,3221,3189
6953,3222,3195
6965,3229,3190
6977,3229,3185
6988,3223,3188
7000,3226,3192
7012,3224,3186
7024,3227,3185
7036,3231,3196
7048,3233,3205
7059,3240,3206
7071,3241,3232
7083,3240,3254
7095,3247,3292
7107,3255,3315
7119,3256,3364
7130,3251,3394
7142,3256,3424
7154,3249,3431
7166,3254,3439
7178,3251,3453
7189,3258,3437
7201,3249,3426
7213,3256,3413
7225,3251,3377
7237,3244,3359
7249,3244,3331
7260,3234,3313
7272,3244,3290
7284,3241,3272
7296,3234,3239
7308,3237,3224
7320,3237,3211
7331,3242,3202
7343,3236,3209
7355,3244,3198
7367,3237,3205
7379,3245,3210
7391,3244,3214
7402,3244,3221
7414,3252,3243
7426,3251,3252
7438,3244,3262
7450,3243,3271
7462,3237,3277
7473,3238,3276
7485,3232,3281
7497,3230,3275
7509,3223,3258
7521,3229,3256
7532,3227,3252
7544,3234,3245
7556,3231,3240
7568,3230,3229
7580,3229,3224
7592,3231,3219
7603,3231,3206
7615,3231,3203
7627,3239,3200
7639,3229,3190
7651,3224,3181
7663,3227,3187
7674,3221,3177
7686,3218,3167
7698,3217,3171
7710,3214,3169
7722,3218,3175
7734,3221,3179
7745,3225,3174
7757,3229,3174
7769,3231,3181
7781,3231,3180
7793,3229,3180
7805,3230,3182
7816,3233,3185
7828,3242,3194
7840,3242,3189
7852,3234,3190
7864,3247,3197
7876,3236,3198
7887,3235,3200
7899,3228,3196
7911,3220,3201
7923,3230,3205
7935,3219,3197
7946,3225,3194
7958,3217,3195
7970,3219,3178
7982,3227,3195
7994,3242,3200
8006,3246,3199
8017,3241,3207
8029,3239,3213
8041,3243,3227
8053,3250,3223
8065,3247,3229
8077,3248,3246
8088,3262,3270
8100,3268,3285
8112,3265,3297
8124,3270,3325
8136,3285,3348
8148,3278,3380
8159,3281,3396
8171,3279,3422
8183,3278,3439
8195,3268,3433
8207,3262,3435
8218,3261,3419
8230,3261,3401
8242,3257,3389
8254,3245,3361
8266,3237,3332
8278,3234,3312
8289,3231,3287
8301,3245,3278
8313,3233,3255
8325,3233,3256
8337,3221,3239
8349,3219,3236
8360,3218,3232
8372,3233,3236
8384,3245,3242
8396,3249,3252
8408,3242,3249
8420,3251,3260
8431,3252,3266
8443,3250,3266
8455,3244,3268
8467,3239,3276
8479,3239,3286
8491,3246,3267
8502,3235,3269
8514,3235,3252
8526,3224,3253
8538,3230,3239
8550,3222,3234
8562,3222,3213
8573,3224,3201
8585,3227,3183
8597,3235,3189
8609,3227,3174
8621,3231,3176
8632,3234,3177
8644,3226,3172
8656,3223,3156
8668,3231,3147
8680,3228,3140
8692,3237,3141
8703,3236,3143
8715,3234,3147
8727,3235,3144
8739,3233,3147
8751,3228,3151
8763,3219,3153
8774,3217,3153
8786,3229,3150
8798,3223,3157
8810,3220,3169
8822,3224,3168
8833,3234,3171
8845,3224,3170
8857,3227,3178
8869,3224,3187
8881,3237,3183
8893,3230,3178
8904,3232,3174
8916,3234,3184
8928,3235,3194
8940,3236,3197
8952,3243,3196
8964,3239,3204
8975,3227,3198
8987,3212,3192
8999,3223,3190
9011,3231,3196
9023,3227,3185
9035,3235,3192
9046,3231,3189
9058,3237,3188
9070,3235,3170
9082,3225,3181
9094,3226,3176
9106,3227,3176
9117,3222,3175
9129,3228,3184
9141,3225,3186
9153,3236,3199
9165,3232,3235
9177,3245,3243
9188,3239,3274
9200,3247,3302
9212,3261,3344
9224,3264,3360
9236,3267,3383
9247,3274,3395
9259,3287,3412
9271,3287,3406
9283,3282,3400
9295,3279,3395
9307,3264,3377
9318,3249,3349
9330,3244,3330
9342,3236,3311
9354,3233,3278
9366,3222,3266
9378,3231,3244
9389,3225,3220
9401,3217,3196
9413,3226,3180
9425,3222,3178
9437,3231,3181
9448,3237,3177
9460,3241,3182
9472,3244,3188
9484,3238,3201
9496,3243,3204
9508,3243,3207
9519,3246,3205
9531,3247,3208
9543,3239,3209
9555,3242,3213
9567,3236,3203
9579,3228,3211
9590,3229,3205
9602,3232,3210
9614,3233,3213
9626,3227,3208
9638,3233,3213
9650,3234,3212
9661,3227,3212
9673,3231,3204
9685,3229,3214
9697,3227,3204
9709,3229,3185
9721,3224,3192
9732,3226,3181
9744,3225,3184
9756,3223,3189
9768,3218,3192
9780,3233,3191
9791,3223,3186
9803,3226,3190
9815,3226,3182
9827,3228,3181
9839,3226,3174
9851,3230,3163
9862,3229,3173
9874,3236,3172
9886,3238,3167
9898,3234,3174
9910,3232,3167
9922,3230,3161
9933,3233,3175
9945,3230,3170
9957,3225,3167
9969,3234,3182
9981,3237,3180
9992,3231,3172
10004,3220,3166
10016,3227,3161
10028,3229,3164
10040,3228,3161
10052,3227,3165
10063,3223,3159
10075,3220,3155
10087,3219,3161
10099,3215,3161
10111,3218,3174
10123,3226,3164
10134,3232,3180
10146,3240,3179
10158,3243,3175
10170,3234,3171
10182,3236,3175
10194,3239,3194
10205,3246,3204
10217,3247,3225
10229,3253,3240
10241,3257,3270
10253,3247,3286
10265,3256,3317
10276,3252,3329
10288,3255,3367
10300,3253,3371
10312,3250,3374
10324,3252,3378
10336,3258,3381
10347,3253,3352
10359,3249,3345
10371,3241,3326
10383,3240,3310
10395,3242,3294
10407,3242,3279
10418,3232,3266
10430,3231,3231
10442,3231,3227
10454,3226,3204
10466,3233,3209
10477,3236,3196
10489,3241,3190
10501,3247,3197
10513,3244,3200
10525,3241,3198
10537,3242,3213
10548,3238,3221
10560,3229,3232
10572,3230,3245
10584,3227,3249
10596,3226,3254
10608,3228,3265
10619,3225,3258
10631,3229,3254
10643,3228,3251
10655,3234,3250
10667,3237,3234
10679,3234,3222
10690,3234,3220
10702,3229,3206
10714,3233,3210
10726,3230,3200
10738,3232,3201
10750,3236,3186
10761,3242,3189
10773,3242,3186
10785,3241,3184
10797,3243,3176
10809,3235,3171
10821,3237,3171
10832,3220,3166
10844,3224,3169
10856,3219,3172
10868,3217,3175
10880,3219,3179
10892,3219,3187
10903,3223,3187
10915,3226,3181
10927,3224,3184
10939,3227,3184
10951,3226,3179
10963,3225,3172
10974,3224,3184
10986,3228,3181
10998,3223,3173
11010,3219,3185
11022,3227,3170
11033,3223,3174
11045,3224,3180
11057,3229,3170
11069,3227,3169
11081,3231,3181
11093,3234,3171
11104,3244,3175
11116,3233,3174
11128,3229,3177
11140,3237,3175
11152,3228,3177
11164,3237,3177
11175,3230,3173
11187,3230,3176
11199,3225,3179
11211,3230,3188
11223,3231,3195
11235,3231,3194
11246,3230,3191
11258,3244,3211
11270,3247,3213
11282,3244,3250
11294,3252,3270
11306,3254,3295
11317,3253,3324
11329,3248,3332
11341,3245,3357
11353,3257,3362
11365,3262,3364
11377,3249,3360
11388,3251,3343
11400,3241,3333
11412,3253,3321
11424,3246,3297
11436,3241,3291
11448,3232,3265
11459,3226,3248
11471,3230,3239
11483,3232,3231
11495,3229,3206
11507,3230,3194
11519,3235,3187
11530,3234,3184
11542,3233,3193
11554,3232,3183
11566,3244,3196
11578,3235,3200
11590,3236,3209
11601,3232,3203
11613,3237,3204
11625,3238,3216
11637,3238,3220
11649,3230,3230
11661,3230,3235
11672,3225,3233
11684,3227,3238
11696,3232,3234
11708,3231,3239
11720,3238,3239
11732,3233,3224
11743,3243,3219
11755,3243,3216
11767,3244,3197
11779,3242,3202
11791,3239,3185
11802,3235,3188
11814,3226,3188
11826,3223,3181
11838,3225,3180
11850,3228,3181
11862,3224,3191
11873,3221,3180
11885,3229,3184
11897,3223,3188
11909,3213,3191
11921,3224,3194
11933,3229,3184
11944,3218,3184
11956,3223,3194
11968,3222,3192
11980,3213,3199
11992,3213,3198
12004,3225,3202
12015,3223,3190
12027,3230,3201
12039,3230,3195
12051,3225,3200
12063,3224,3192
12075,3239,3187
12086,3235,3201
12098,3231,3198
12110,3239,3193
12122,3232,3200
12134,3240,3207
12146,3230,3195
12157,3236,3197
12169,3229,3187
12181,3225,3187
12193,3224,3177
12205,3212,3183
12217,3217,3170
12228,3227,3189
12240,3228,3174
12252,3235,3176
12264,3227,3172
12276,3235,3172
12288,3226,3171
12299,3229,3175
12311,3227,3184
12323,3227,3184
12335,3231,3190
12347,3239,3207
12358,3231,3226
12370,3234,3254
12382,3243,3282
12394,3246,3315
12406,3256,3341
12418,3254,3363
12429,3262,3383
12441,3273,3391
12453,3265,3394
12465,3266,3403
12477,3261,3385
12489,3261,3367
12501,3253,3345
12512,3245,3311
12524,3236,3292
12536,3237,3279
12548,3227,3249
12560,3236,3235
12572,3230,3212
12583,3234,3204
12595,3236,3197
12607,3237,3198
12619,3238,3196
12631,3236,3201
12642,3234,3206
12654,3231,3210
12666,3235,3214
12678,3235,3236
12690,3234,3235
12702,3231,3252
12713,3226,3259
12725,3221,3256
12737,3231,3269
12749,3235,3271
12761,3244,3265
12773,3245,3258
12784,3248,3269
12796,3240,3258
12808,3235,3256
12820,3238,3250
12832,3222,3233
12844,3229,3234
12855,3231,3227
12867,3226,3216
12879,3226,3210
12891,3227,3206
12903,3222,3196
12915,3223,3199
12926,3228,3193
12938,3226,3193
12950,3226,3196
12962,3229,3191
12974,3229,3196
12985,3224,3191
12997,3227,3199
13009,3229,3190
13021,3233,3208
13033,3232,3200
13045,3223,3192
13056,3226,3196
13068,3226,3193
13080,3221,3190
13092,3213,3194
13104,3212,3196
13116,3213,3192
13127,3220,3197
13139,3211,3193
13151,3223,3192
13163,3226,3196
13175,3232,3205
13187,3235,3206
13198,3244,3204
13210,3240,3219
13222,3238,3207
13234,3244,3212
13246,3234,3208
13258,3234,3211
13269,3230,3195
13281,3224,3192
13293,3232,3201
13305,3227,3197
13317,3237,3192
13329,3227,3181
13340,3234,3184
13352,3226,3187
13364,3226,3190
13376,3211,3185
13388,3215,3195
13400,3223,3193
13411,3215,3184
13423,3225,3186
13435,3228,3209
13447,3229,3212
13459,3238,3236
13471,3235,3250
13482,3249,3296
13494,3257,3323
13506,3272,3344
13518,3264,3360
13530,3275,3391
13541,3267,3394
13553,3265,3394
13565,3255,3388
13577,3247,3367
13589,3239,3354
13601,3246,3341
13612,3238,3315
13624,3239,3289
13636,3235,3273
13648,3236,3248
13660,3240,3246
13672,3229,3225
13683,3227,3224
13695,3230,3224
13707,3231,3215
13719,3223,3210
13731,3220,3208
13743,3216,3208
13754,3225,3224
13766,3221,3221
13778,3219,3233
13790,3217,3249
13802,3234,3249
13814,3232,3257
13825,3231,3246
13837,3247,3257
13849,3247,3263
13861,3251,3246
13873,3241,3249
13885,3239,3245
13896,3244,3243
13908,3231,3235
13920,3231,3239
13932,3223,3238
13944,3226,3235
13956,3220,3223
13967,3221,3214
13979,3218,3214
13991,3218,3201
14003,3226,3193
14015,3225,3187
14027,3226,3196
14038,3229,3192
14050,3240,3199
14062,3236,3194
14074,3244,3190
14086,3241,3190
14097,3236,3188
14109,3234,3193
14121,3232,3184
14133,3230,3184
14145,3225,3191
14157,3226,3197
14168,3223,3204
14180,3213,3193
14192,3211,3196
14204,3217,3200
14216,3215,3193
14228,3227,3195
14239,3233,3198
14251,3219,3199
14263,3223,3192
14275,3227,3193
14287,3228,3195
14299,3229,3198
14310,3222,3196
14322,3229,3201
14334,3213,3205
14346,3228,3206
14358,3226,3198
14370,3223,3203
14381,3228,3200
14393,3224,3193
14405,3223,3179
14417,3229,3179
14429,3234,3181
14441,3232,3178
14452,3237,3192
14464,3233,3194
14476,3235,3191
14488,3226,3194
14500,3228,3197
14512,3222,3185
14523,3232,3195
14535,3222,3201
14547,3233,3209
14559,3238,3224
14571,3247,3237
14583,3246,3270
14594,3251,3290
14606,3253,3322
14618,3267,3352
14630,3266,3370
14642,3266,3393
14653,3264,3392
14665,3261,3402
14677,3252,3398
14689,3247,3390
14701,3246,3370
14713,3249,3360
14724,3239,3335
14736,3239,3323
14748,3230,3291
14760,3234,3284
14772,3228,3265
14784,3228,3260
14795,3229,3246
14807,3231,3240
14819,3224,3233
14831,3227,3233
14843,3223,3226
14855,3214,3223
14866,3218,3226
14878,3220,3226
14890,3221,3233
14902,3222,3232
14914,3233,3242
14926,3237,3246
14937,3239,3246
14949,3237,3248
14961,3242,3259
14973,3247,3266
14985,3241,3260
14997,3236,3262
15008,3235,3268
15020,3237,3257
15032,3233,3263
15044,3236,3258
15056,3238,3245
15068,3240,3241
15079,3240,3231
15091,3225,3218
15103,3219,3213
15115,3226,3215
15127,3235,3207
15139,3230,3211
15150,3238,3206
15162,3228,3198
15174,3233,3201
15186,3232,3200
15198,3231,3197
15209,3233,3207
15221,3226,3212
15233,3231,3207
15245,3224,3204
15257,3217,3197
15269,3219,3202
15280,3217,3193
15292,3213,3181
15304,3215,3187
15316,3224,3197
15328,3221,3197
15340,3227,3199
15351,3227,3192
15363,3237,3200
15375,3238,3207
15387,3233,3206
15399,3236,3207
15411,3235,3198
15422,3221,3203
15434,3222,3202
15446,3226,3208
15458,3228,3200
15470,3223,3206
15482,3234,3189
15493,3226,3196
15505,3227,3197
15517,3228,3188
15529,3225,3187
15541,3223,3192
15553,3220,3191
15564,3220,3189
15576,3216,3191
15588,3217,3200
15600,3225,3205
15612,3244,3206
15624,3227,3220
15635,3235,3242
15647,3229,3257
15659,3235,3291
15671,3244,3322
15683,3259,3360
15695,3260,3386
15706,3267,3401
15718,3265,3417
15730,3258,3425
15742,3259,3426
15754,3258,3412
15766,3252,3399
15777,3252,3382
15789,3246,3351
15801,3238,3327
15813,3241,3310
15825,3233,3281
15837,3235,3262
15848,3231,3248
15860,3225,3219
15872,3224,3214
15884,3226,3205
15896,3226,3205
15908,3227,3204
15919,3224,3204
15931,3221,3205
15943,3231,3210
15955,3235,3224
15967,3224,3232
15978,3235,3245
15990,3240,3251
16002,3234,3258
16014,3243,3261
16026,3250,3269
16038,3235,3272
16049,3232,3281
16061,3236,3279
16073,3242,3273
16085,3232,3264
16097,3228,3263
16109,3233,3258
16120,3228,3232
16132,3233,3239
16144,3232,3225
16156,3238,3214
16168,3229,3197
16180,3227,3200
16191,3223,3194
16203,3228,3185
16215,3218,3181
16227,3231,3190
16239,3221,3193
16251,3229,3195
16262,3227,3191
16274,3228,3189
16286,3231,3184
16298,3235,3185
16310,3231,3184
16322,3235,3185
16333,3229,3185
16345,3224,3182
16357,3221,3182
16369,3222,3177
16381,3222,3181
16393,3216,3189
16404,3218,3192
16416,3224,3202
16428,3226,3200
16440,3236,3192
16452,3228,3194
16464,3239,3200
16475,3238,3190
16487,3246,3200
16499,3235,3200
16511,3234,3185
16523,3227,3193
16535,3234,3195
16546,3231,3191
16558,3219,3187
16570,3219,3191
16582,3225,3191
16594,3216,3188
16605,3225,3203
16617,3220,3184
16629,3224,3186
16641,3241,3194
16653,3232,3191
16665,3240,3204
16676,3231,3199
16688,3240,3212
16700,3240,3223
16712,3236,3242
16724,3232,3267
16736,3234,3291
16747,3241,3326
16759,3246,3352
16771,3254,3380
16783,3267,3398
16795,3268,3425
16807,3270,3419
16818,3271,3416
16830,3280,3408
16842,3272,3387
16854,3272,3367
16866,3268,3349
16878,3261,3329
16889,3254,3312
16901,3241,3298
16913,3229,3286
16925,3231,3269
16937,3223,3265
16949,3220,3242
16960,3219,3232
16972,3223,3227
16984,3228,3217
16996,3231,3210
17008,3236,3217
17020,3236,3217
17031,3238,3226
17043,3238,3235
17055,3240,3240
17067,3237,3253
17079,3230,3265
17091,3237,3259
17102,3230,3264
17114,3234,3266
17126,3233,3272
17138,3227,3272
17150,3227,3274
17162,3221,3266
17173,3227,3246
17185,3230,3250
17197,3223,3228
17209,3239,3227
17221,3234,3216
17233,3237,3207
17244,3239,3205
17256,3241,3209
17268,3229,3198
17280,3236,3196
17292,3241,3192
17303,3237,3184
17315,3230,3186
17327,3245,3182
17339,3237,3180
17351,3234,3168
17363,3230,3171
17374,3227,3179
17386,3228,3178
17398,3222,3187
17410,3217,3183
17422,3226,3193
17434,3227,3185
17445,3229,3197
17457,3214,3201
17469,3215,3204
17481,3218,3202
17493,3222,3200
17505,3228,3214
17516,3229,3206
17528,3232,3198
17540,3231,3208
17552,3237,3208
17564,3233,3209
17576,3225,3198
17587,3229,3199
17599,3222,3200
17611,3222,3197
17623,3214,3186
17635,3221,3187
17647,3213,3180
17658,3227,3191
17670,3222,3188
17682,3228,3175
17694,3228,3189
17706,3233,3182
17718,3226,3185
17729,3239,3190
17741,3244,3190
17753,3228,3212
17765,3240,3215
17777,3237,3223
17789,3241,3252
17800,3246,3275
17812,3252,3300
17824,3252,3331
17836,3255,3344
17848,3251,3362
17860,3253,3377
17871,3260,3386
17883,3255,3384
17895,3255,3378
17907,3251,3367
17919,3250,3358
17931,3242,3346
17942,3239,3327
17954,3239,3307
17966,3235,3287
17978,3227,3261
17990,3226,3242
18002,3239,3220
18013,3234,3216
18025,3234,3207
18037,3243,3204
18049,3241,3192
18061,3249,3192
18073,3239,3188
18084,3238,3186
18096,3235,3190
18108,3228,3197
18120,3231,3206
18132,3241,3219
18144,3233,3232
18155,3243,3239
18167,3238,3249
18179,3233,3242
18191,3233,3244
18203,3231,3235
18215,3228,3237
18226,3224,3225
18238,3229,3234
18250,3232,3233
18262,3230,3224
18274,3232,3229
18285,3234,3216
18297,3236,3215
18309,3240,3223
18321,3234,3200
18333,3244,3202
18345,3232,3193
18357,3233,3199
18368,3222,3193
18380,3233,3204
18392,3237,3198
18404,3227,3177
18416,3233,3179
18428,3229,3178
18439,3240,3178
18451,3241,3185
18463,3232,3186
18475,3241,3182
18487,3238,3186
18499,3224,3185
18510,3215,3187
18522,3214,3184
18534,3213,3186
18546,3210,3180
18558,3217,3185
18570,3223,3183
18581,3229,3184
18593,3238,3187
18605,3234,3191
18617,3238,3196
18629,3239,3195
18641,3236,3188
18652,3229,3196
18664,3225,3199
18676,3231,3197
18688,3221,3196
18700,3215,3192
18712,3221,3185
18723,3229,3191
18735,3237,3178
18747,3240,3176
18759,3241,3171
18771,3238,3174
18783,3246,3175
18794,3246,3177
18806,3242,3182
18818,3234,3166
18830,3223,3160
18842,3231,3175
18854,3220,3179
18865,3225,3176
18877,3221,3177
18889,3213,3171
18901,3221,3188
18913,3229,3184
18925,3226,3209
18936,3238,3241
18948,3236,3268
18960,3251,3285
18972,3260,3323
18984,3259,3343
18996,3253,3355
19007,3260,3380
19019,3260,3376
19031,3266,3372
19043,3260,3358
19055,3264,3341
19067,3260,3335
19078,3250,3307
19090,3245,3294
19102,3248,3284
19114,3244,3273
19126,3240,3267
19138,3239,3254
19149,3231,3243
19161,3234,3239
19173,3221,3235
19185,3218,3225
19197,3224,3219
19209,3220,3218
19220,3217,3212
19232,3223,3209
19244,3228,3202
19256,3229,3211
19268,3226,3211
19280,3230,3211
19291,3235,3225
19303,3240,3230
19315,3243,3242
19327,3253,3239
19339,3250,3243
19351,3238,3236
19362,3241,3240
19374,3239,3236
19386,3236,3234
19398,3234,3223
19410,3235,3215
19422,3236,3215
19433,3220,3206
19445,3224,3202
19457,3220,3205
19469,3225,3204
19481,3217,3190
19493,3222,3175
19504,3217,3177
19516,3213,3175
19528,3216,3167
19540,3216,3176
19552,3224,3179
19564,3227,3177
19575,3244,3175
19587,3242,3172
19599,3240,3181
19611,3233,3171
19623,3229,3184
19635,3230,3177
19646,3234,3182
19658,3234,3183
19670,3229,3177
19682,3233,3188
19694,3241,3185
19706,3227,3197
19717,3225,3189
19729,3221,3187
19741,3231,3184
19753,3228,3183
19765,3227,3176
19777,3233,3174
19788,3233,3182
19800,3229,3189
19812,3220,3186
19824,3219,3186
19836,3214,3186
19848,3218,3190
19859,3212,3182
19871,3227,3192
19883,3230,3195
19895,3233,3196
19907,3230,3197
19919,3239,3188
19930,3238,3183
19942,3233,3174
19954,3240,3186
19966,3232,3178
19978,3232,3184
19990,3219,3183
20001,3217,3181
20013,3220,3185
20025,3214,3186
20037,3220,3188
20049,3228,3194
20061,3231,3195
20072,3237,3202
20084,3250,3218
20096,3253,3222
20108,3255,3244
20120,3256,3274
20132,3254,3289
20143,3250,3307
20155,3245,3331
20167,3255,3339
20179,3253,3363
20191,3262,3361
20203,3249,3346
20214,3248,3353
20226,3244,3332
20238,3242,3324
20250,3245,3318
20262,3250,3303
20274,3252,3282
20285,3241,3269
20297,3233,3244
20309,3229,3242
20321,3232,3232
20333,3232,3219
20345,3231,3214
20356,3220,3203
20368,3223,3202
20380,3216,3201
20392,3219,3202
20404,3221,3203
20416,3224,3207
20427,3227,3213
20439,3229,3237
20451,3231,3236
20463,3238,3244
20475,3242,3245
20487,3247,3249
20498,3242,3256
20510,3242,3249
20522,3239,3258
20534,3240,3258
20546,3231,3254
20558,3222,3245
20569,3229,3240
20581,3228,3234
20593,3224,3224
20605,3222,3228
20617,3221,3208
20629,3230,3200
20640,3227,3199
20652,3229,3190
20664,3228,3194
20676,3225,3187
20688,3227,3189
20700,3217,3184
20711,3213,3181
20723,3224,3184
20735,3218,3179
20747,3216,3179
20759,3229,3186
20771,3229,3190
20783,3228,3184
20794,3232,3194
20806,3230,3198
20818,3231,3202
20830,3237,3197
20842,3251,3193
20854,3242,3192
20865,3243,3188
20877,3238,3196
20889,3244,3188
20901,3238,3188
20913,3231,3192
20925,3227,3200
20936,3235,3195
20948,3229,3199
20960,3231,3203
20972,3223,3205
20984,3225,3207
20996,3222,3197
21007,3228,3205
21019,3230,3200
21031,3229,3196
21043,3222,3192
21055,3227,3191
21067,3222,3201
21078,3225,3203
21090,3219,3192
21102,3217,3189
21114,3224,3184
21126,3222,3197
21138,3223,3193
21149,3222,3190
21161,3228,3185
21173,3234,3186
21185,3234,3188
21197,3237,3186
21209,3232,3175
21220,3231,3178
21232,3238,3192
21244,3240,3204
21256,3236,3221
21268,3244,3242
21280,3236,3252
21291,3247,3283
21303,3245,3303
21315,3253,3339
21327,3260,3361
21339,3261,3377
21351,3259,3393
21362,3248,3386
21374,3247,3382
21386,3250,3372
21398,3254,3359
21410,3255,3345
21422,3251,3328
21433,3245,3310
21445,3241,3291
21457,3237,3274
21469,3245,3253
21481,3235,3246
21493,3239,3230
21504,3227,3227
21516,3229,3221
21528,3229,3225
21540,3221,3225
21552,3224,3217
21564,3219,3229
21575,3218,3222
21587,3222,3234
21599,3230,3244
21611,3245,3252
21623,3247,3257
21635,3246,3267
21646,3236,3270
21658,3245,3271
21670,3241,3268
21682,3246,3268
21694,3243,3265
21706,3244,3260
21718,3233,3263
21729,3238,3250
21741,3226,3248
21753,3237,3237
21765,3231,3231
21777,3233,3229
21789,3239,3212
21800,3237,3216
21812,3236,3210
21824,3231,3208
21836,3226,3208
21848,3217,3198
21860,3220,3198
21871,3217,3194
21883,3223,3206
21895,3228,3202
21907,3229,3203
21919,3223,3218
21931,3216,3208
21942,3227,3199
21954,3233,3206
21966,3236,3212
21978,3234,3201
21990,3230,3197
22002,3224,3209
22013,3217,3201
22025,3221,3206
22037,3234,3220
22049,3223,3219
22061,3225,3224
22073,3236,3226
22084,3242,3228
22096,3228,3219
22108,3241,3219
22120,3233,3214
22132,3228,3212
22144,3228,3210
22155,3226,3207
22167,3233,3205
22179,3228,3194
22191,3227,3204
22203,3230,3198
22215,3217,3190
22226,3228,3199
22238,3229,3199
22250,3221,3196
22262,3227,3205
22274,3226,3200
22286,3236,3191
22297,3235,3195
22309,3236,3185
22321,3226,3192
22333,3227,3192
22345,3233,3198
22357,3228,3195
22368,3229,3192
22380,3225,3207
22392,3212,3200
22404,3220,3205
22416,3215,3201
22428,3223,3198
22439,3225,3192
22451,3232,3202
22463,3236,3207
22475,3235,3226
22487,3236,3250
22499,3249,3283
22511,3244,3310
22522,3248,3331
22534,3250,3359
22546,3250,3382
22558,3262,3408
22570,3263,3418
22582,3257,3409
22593,3257,3406
22605,3256,3392
22617,3250,3374
22629,3244,3353
22641,3245,3340
22653,3243,3323
22664,3233,3307
22676,3228,3278
22688,3223,3272
22700,3225,3265
22712,3225,3260
22724,3221,3235
22735,3228,3222
22747,3229,3212
22759,3235,3213
22771,3236,3220
22783,3243,3219
22795,3240,3219
22806,3244,3228
22818,3241,3231
22830,3238,3252
22842,3241,3268
22854,3238,3276
22866,3252,3290
22877,3236,3290
22889,3237,3289
22901,3236,3287
22913,3233,3278
22925,3224,3266
22936,3233,3276
22948,3219,3251
22960,3224,3253
22972,3217,3246
22984,3219,3240
22996,3216,3228
23007,3203,3225
23019,3201,3217
23031,3212,3221
23043,3213,3219
23055,3210,3207
23067,3217,3204
23079,3225,3205
23090,3234,3205
23102,3238,3199
23114,3241,3191
23126,3230,3192
23138,3235,3190
23150,3237,3184
23161,3237,3194
23173,3236,3190
23185,3222,3192
23197,3221,3186
23209,3219,3196
23221,3221,3184
23232,3218,3190
23244,3218,3196
23256,3220,3191
23268,3228,3189
23280,3228,3202
23292,3226,3201
23303,3235,3207
23315,3236,3210
23327,3239,3212
23339,3235,3208
23351,3239,3217
23363,3232,3204
23374,3225,3194
23386,3228,3197
23398,3221,3189
23410,3223,3197
23422,3222,3189
23434,3216,3190
23445,3214,3188
23457,3213,3191
23469,3227,3203
23481,3229,3198
23493,3227,3188
23505,3234,3189
23516,3245,3191
23528,3237,3191
23540,3237,3183
23552,3236,3177
23564,3229,3180
23576,3229,3182
23587,3225,3182
23599,3225,3185
23611,3228,3183
23623,3233,3185
23635,3228,3183
23647,3235,3201
23658,3228,3204
23670,3238,3232
23682,3232,3254
23694,3238,3284
23706,3244,3318
23718,3244,3356
23729,3251,3398
23741,3252,3424
23753,3258,3444
23765,3265,3456
23777,3255,3457
23789,3254,3457
23800,3244,3447
23812,3248,3431
23824,3241,3413
23836,3238,3383
23848,3231,3355
23860,3226,3324
23871,3220,3319
23883,3228,3291
23895,3234,3278
23907,3233,3258
23919,3237,3238
23931,3233,3237
23942,3237,3227
23954,3236,3216
23966,3230,3215
23978,3225,3221
23990,3220,3215
24002,3230,3226
24013,3229,3234
24025,3230,3242
24037,3230,3256
24049,3237,3267
24061,3235,3268
24073,3239,3278
24084,3232,3282
24096,3239,3285
24108,3237,3292
24120,3233,3285
24132,3233,3274
24144,3234,3284
24156,3235,3274
24167,3236,3268
24179,3236,3249
24191,3227,3244
24203,3230,3238
24215,3222,3226
24227,3224,3219
24238,3223,3219
24250,3229,3214
24262,3232,3210
24274,3237,3205
24286,3231,3209
24298,3237,3203
24309,3228,3199
24321,3225,3203
24333,3225,3199
24345,3221,3208
24357,3219,3196
24369,3226,3196
24380,3224,3182
24392,3225,3192
24404,3223,3189
24416,3224,3192
24428,3226,3195
24440,3235,3200
24451,3241,3200
24463,3235,3204
24475,3237,3202
24487,3237,3207
24499,3235,3203
24511,3220,3197
24522,3220,3193
24534,3227,3204
24546,3218,3200
24558,3221,3205
24570,3221,3208
24582,3220,3215
24593,3220,3207
24605,3217,3204
24617,3213,3207
24629,3215,3200
24641,3229,3200
24653,3224,3199
24664,3223,3196
24676,3223,3194
24688,3238,3187
24700,3239,3189
24712,3243,3190
24724,3243,3189
24735,3241,3193
24747,3240,3192
24759,3235,3194
24771,3234,3183
24783,3231,3193
24795,3225,3197
24806,3224,3207
24818,3229,3229
24830,3234,3253
24842,3232,3287
24854,3232,3315
24866,3227,3367
24877,3242,3395
24889,3247,3436
24901,3259,3465
24913,3263,3479
24925,3262,3477
24937,3253,3483
24948,3258,3474
24960,3253,3443
24972,3252,3434
24984,3247,3406
24996,3257,3377
25008,3248,3351
25019,3248,3321
25031,3243,3308
25043,3237,3285
25055,3236,3262
25067,3234,3244
25079,3231,3222
25090,3229,3217
25102,3228,3202
25114,3219,3199
25126,3218,3202
25138,3225,3198
25150,3233,3212
25162,3234,3221
25173,3234,3232
25185,3242,3242
25197,3239,3253
25209,3232,3269
25221,3234,3291
25233,3240,3289
25244,3236,3295
25256,3238,3282
25268,3246,3293
25280,3243,3285
25292,3241,3278
25304,3240,3269
25315,3242,3253
25327,3241,3247
25339,3241,3221
25351,3243,3222
25363,3230,3211
25375,3230,3215
25386,3219,3196
25398,3216,3192
25410,3217,3191
25422,3217,3183
25434,3222,3189
25446,3217,3194
25457,3225,3194
25469,3220,3193
25481,3220,3191
25493,3220,3193
25505,3221,3191
25517,3225,3178
25528,3229,3188
25540,3224,3187
25552,3223,3187
25564,3231,3184
25576,3228,3175
25588,3225,3170
25599,3236,3186
25611,3230,3179
25623,3243,3184
25635,3227,3181
25647,3230,3191
25659,3239,3199
25670,3237,3187
25682,3230,3179
25694,3234,3183
25706,3231,3190
25718,3228,3198
25730,3236,3198
25741,3233,3192
25753,3233,3188
25765,3234,3185
25777,3233,3187
25789,3237,3185
25801,3235,3186
25812,3243,3196
25824,3242,3194
25836,3237,3205
25848,3233,3203
25860,3232,3201
25872,3229,3197
25883,3226,3187
25895,3228,3189
25907,3233,3185
25919,3227,3189
25931,3224,3198
25943,3225,3181
25954,3231,3180
25966,3232,3197
25978,3233,3201
25990,3227,3222
26002,3246,3249
26014,3236,3280
26025,3252,3329
26037,3254,3366
26049,3257,3407
26061,3263,3446
26073,3251,3464
26085,3260,3489
26096,3262,3497
26108,3255,3506
26120,3254,3487
26132,3255,3482
26144,3255,3464
26156,3257,3437
26167,3253,3403
26179,3253,3380
26191,3251,3354
26203,3256,3318
26215,3251,3288
26227,3248,3263
26239,3240,3239
26250,3237,3222
26262,3233,3211
26274,3227,3199
26286,3239,3199
26298,3234,3212
26310,3230,3215
26321,3235,3229
26333,3238,3238
26345,3231,3259
26357,3237,3275
26369,3238,3282
26381,3240,3296
26392,3241,3301
26404,3249,3304
26416,3249,3311
26428,3241,3298
26440,3250,3289
26452,3247,3291
26463,3239,3278
26475,3235,3270
26487,3233,3247
26499,3237,3237
26511,3230,3229
26523,3229,3209
26534,3225,3193
26546,3232,3195
26558,3226,3181
26570,3224,3178
26582,3225,3176
26594,3231,3179
26605,3227,3177
26617,3230,3179
26629,3233,3191
26641,3242,3178
26653,3240,3189
26665,3236,3189
26676,3242,3199
26688,3237,3186
26700,3237,3191
26712,3237,3192
26724,3241,3184
26736,3238,3187
26747,3239,3191
26759,3245,3190
26771,3235,3193
26783,3233,3187
26795,3233,3194
26807,3219,3194
26819,3221,3200
26830,3230,3206
26842,3232,3200
26854,3229,3203
26866,3235,3207
26878,3247,3205
26890,3234,3193
26901,3242,3191
26913,3241,3194
26925,3230,3188
26937,3231,3187
26949,3226,3182
26961,3236,3182
26972,3228,3170
26984,3225,3177
26996,3226,3177
27008,3214,3174
27020,3214,3170
27032,3230,3187
27043,3235,3186
27055,3241,3181
27067,3241,3187
27079,3245,3194
27091,3243,3198
27103,3241,3220
27114,3242,3250
27126,3247,3284
27138,3248,3329
27150,3261,3377
27162,3262,3423
27174,3267,3466
27185,3265,3495
27197,3273,3515
27209,3279,3530
27221,3288,3543
27233,3284,3527
27245,3288,3506
27256,3280,3478
27268,3278,3455
27280,3269,3425
27292,3261,3392
27304,3243,3346
27316,3240,3318
27327,3243,3292
27339,3240,3271
27351,3226,3250
27363,3240,3241
27375,3233,3224
27387,3243,3213
27398,3249,3214
27410,3252,3209
27422,3245,3214
27434,3248,3232
27446,3250,3247
27458,3254,3266
27469,3249,3282
27481,3253,3293
27493,3249,3292
27505,3254,3308
27517,3255,3312
27529,3252,3310
27541,3250,3306
27552,3239,3306
27564,3239,3300
27576,3237,3276
27588,3242,3262
27600,3241,3255
27612,3247,3238
27623,3249,3227
27635,3249,3213
27647,3248,3199
27659,3246,3196
27671,3236,3193
27683,3234,3175
27694,3246,3181
27706,3237,3179
27718,3231,3173
27730,3233,3177
27742,3243,3189
27754,3234,3180
27765,3239,3183
27777,3235,3187
27789,3236,3195
27801,3235,3188
27813,3223,3193
27825,3233,3184
27836,3232,3194
27848,3226,3191
27860,3226,3189
27872,3238,3187
27884,3235,3188
27896,3244,3194
27908,3237,3195
27919,3243,3195
27931,3249,3192
27943,3240,3199
27955,3244,3201
27967,3236,3190
27979,3238,3199
27990,3231,3187
28002,3233,3186
28014,3236,3187
28026,3238,3185
28038,3234,3179
28050,3233,3180
28061,3241,3173
28073,3248,3176
28085,3241,3179
28097,3234,3176
28109,3236,3182
28121,3227,3183
28132,3227,3180
28144,3223,3179
28156,3231,3176
28168,3224,3181
28180,3223,3167
28192,3225,3174
28203,3226,3172
28215,3234,3167
28227,3234,3175
28239,3232,3171
28251,3238,3178
28263,3232,3190
28274,3228,3208
28286,3231,3240
28298,3245,3281
28310,3252,3334
28322,3261,3386
28334,3269,3442
28345,3283,3495
28357,3288,3533
28369,3296,3569
28381,3297,3580
28393,3303,3586
28405,3292,3572
28416,3286,3557
28428,3292,3524
28440,3276,3493
28452,3266,3445
28464,3265,3403
28476,3267,3366
28487,3266,3325
28499,3273,3298
28511,3266,3269
28523,3262,3243
28535,3254,3226
28547,3246,3206
28559,3246,3207
28570,3247,3201
28582,3245,3206
28594,3242,3208
28606,3247,3215
28618,3251,3234
28630,3249,3251
28641,3248,3268
28653,3249,3288
28665,3242,3308
28677,3243,3328
28689,3252,3326
28701,3249,3332
28712,3246,3330
28724,3252,3312
28736,3258,3300
28748,3265,3276
28760,3276,3274
28772,3267,3246
28783,3266,3230
28795,3256,3222
28807,3258,3221
28819,3245,3196
28831,3248,3194
28843,3234,3186
28854,3242,3184
28866,3233,3181
28878,3228,3183
28890,3222,3176
28902,3219,3179
28914,3225,3181
28925,3231,3186
28937,3236,3185
28949,3248,3184
28961,3242,3177
28973,3250,3180
28985,3251,3173
28996,3252,3173
29008,3252,3185
29020,3245,3189
29032,3239,3195
29044,3237,3194
29056,3232,3190
29067,3232,3193
29079,3232,3196
29091,3239,3200
29103,3233,3187
29115,3226,3188
29127,3231,3188
29138,3239,3185
29150,3225,3176
29162,3238,3178
29174,3235,3173
29186,3240,3172
29198,3221,3160
29209,3231,3171
29221,3227,3160
29233,3226,3158
29245,3231,3157
29257,3229,3159
29269,3232,3163
29281,3215,3151
29292,3226,3153
29304,3219,3155
29316,3227,3150
29328,3229,3159
29340,3228,3162
29352,3229,3163
29363,3226,3170
29375,3227,3171
29387,3229,3179
29399,3230,3182
29411,3235,3187
29423,3236,3186
29434,3229,3181
29446,3230,3181
29458,3232,3176
29470,3232,3181
29482,3233,3177
29494,3237,3186
29505,3242,3200
29517,3254,3243
29529,3252,3277
29541,3255,3329
29553,3257,3390
29565,3270,3442
29576,3281,3499
29588,3288,3547
29600,3290,3564
29612,3292,3579
29624,3293,3581
29636,3293,3551
29647,3283,3526
29659,3273,3486
29671,3268,3449
29683,3262,3409
29695,3266,3365
29707,3253,3335
29718,3253,3297
29730,3250,3271
29742,3252,3252
29754,3241,3222
29766,3243,3209
29778,3234,3195
29789,3237,3194
29801,3228,3185
29813,3231,3199
29825,3244,3209
29837,3243,3211
29849,3250,3232
29861,3250,3244
29872,3254,3263
29884,3249,3279
29896,3247,3291
29908,3247,3296
29920,3252,3305
29932,3247,3300
29943,3253,3290
29955,3258,3281
29967,3255,3271
29979,3255,3257
29991,3253,3244
