timestamp_ms,ppg1,ppg2
0,3045,1702
12,3037,1696
24,3038,1699
36,3052,1699
47,3049,1701
59,3039,1699
71,3044,1696
83,3039,1703
95,3037,1700
106,3038,1696
118,3039,1700
130,3034,1702
142,3031,1701
154,3034,1699
166,3019,1698
177,3031,1702
189,3024,1701
201,3029,1702
213,3025,1698
225,3022,1702
237,3021,1704
248,3029,1705
260,3026,1704
272,3025,1704
284,3023,1700
296,3021,1708
307,3023,1700
319,3024,1703
331,3022,1699
343,3015,1701
355,3030,1708
367,3018,1704
378,3020,1701
390,3021,1700
402,3018,1706
414,3016,1699
426,3009,1706
437,3017,1699
449,3013,1700
461,3019,1706
473,3015,1699
485,3024,1701
497,3016,1699
508,3021,1703
520,3026,1703
532,3019,1707
544,3028,1700
556,3038,1701
567,3048,1700
579,3044,1696
591,3044,1696
603,3042,1696
615,3041,1699
627,3040,1692
638,3040,1695
650,3044,1697
662,3046,1697
674,3040,1696
686,3051,1706
697,3050,1692
709,3050,1696
721,3050,1701
733,3050,1699
745,3042,1695
757,3040,1693
768,3044,1701
780,3017,1709
792,3009,1708
804,3018,1709
816,3051,1703
827,3050,1700
839,3048,1703
851,3041,1703
863,3032,1698
875,3037,1703
887,3036,1691
898,3039,1698
910,3048,1697
922,3049,1694
934,3042,1697
946,3052,1693
957,3053,1700
969,3057,1694
981,3058,1696
993,3042,1698
1005,3051,1703
1017,3029,1704
1028,3019,1707
1040,3019,1700
1052,3018,1701
1064,3019,1698
1076,3003,1701
1087,3005,1708
1099,3021,1703
1111,3007,1703
1123,3016,1698
1135,3026,1692
1147,3035,1698
1158,3032,1695
1170,3039,1699
1182,3040,1698
1194,3041,1692
1206,3042,1692
1218,3034,1692
1229,3042,1700
1241,3038,1699
1253,3039,1681
1265,3034,1692
1277,3032,1695
1288,3037,1693
1300,3050,1694
1312,3043,1693
1324,3039,1703
1336,3030,1701
1348,3037,1694
1359,3039,1698
1371,3049,1693
1383,3034,1694
1395,3024,1692
1407,3026,1691
1419,3040,1689
1430,3035,1698
1442,3031,1696
1454,3017,1699
1466,3013,1702
1478,3005,1701
1489,3001,1699
1501,2984,1701
1513,2998,1693
1525,3001,1694
1537,3002,1701
1549,3002,1693
1560,2997,1697
1572,2994,1689
1584,3001,1696
1596,3008,1699
1608,2989,1697
1619,2998,1694
1631,3004,1693
1643,2981,1699
1655,2972,1701
1667,2966,1701
1679,2960,1701
1690,2946,1706
1702,2948,1701
1714,2942,1696
1726,2945,1700
1738,2954,1702
1750,2952,1697
1761,2951,1699
1773,2964,1702
1785,2960,1707
1797,2959,1699
1809,2976,1698
1821,3001,1693
1832,2992,1692
1844,3007,1694
1856,3012,1696
1868,3024,1693
1880,3032,1688
1891,3017,1695
1903,3012,1694
1915,3039,1696
1927,2991,1692
1939,2945,1703
1951,2975,1688
1962,2970,1692
1974,2976,1692
1986,2963,1695
1998,2958,1700
2010,2944,1693
2022,2907,1693
2033,2979,1694
2045,2970,1703
2057,2983,1696
2069,2982,1700
2081,2991,1707
2093,3003,1706
2104,3005,1701
2116,3027,1697
2128,3065,1698
2140,3068,1691
2152,3059,1694
2163,3039,1688
2175,3044,1704
2187,3052,1704
2199,3054,1700
2211,3066,1703
2223,3065,1698
2234,3069,1700
2246,3075,1697
2258,3072,1694
2270,3100,1686
2282,3095,1686
2294,3096,1693
2305,3019,1689
2317,3043,1699
2329,3029,1702
2341,3047,1696
2353,3030,1696
2365,3013,1702
2376,3034,1693
2388,3060,1697
2400,3056,1696
2412,3010,1708
2424,3008,1698
2435,3026,1699
2447,3013,1692
2459,2994,1700
2471,3046,1702
2483,3046,1694
2495,3049,1694
2506,3078,1696
2518,3095,1700
2530,3117,1694
2542,3090,1704
2554,3080,1703
2566,3100,1702
2577,3152,1694
2589,3185,1694
2601,3204,1697
2613,3192,1696
2625,3200,1690
2637,3192,1696
2648,3178,1694
2660,3186,1702
2672,3186,1694
2684,3170,1693
2696,3177,1701
2707,3161,1697
2719,3164,1695
2731,3157,1697
2743,3154,1694
2755,3153,1698
2767,3139,1701
2778,3145,1699
2790,3139,1708
2802,3130,1699
2814,3123,1706
2826,3120,1701
2838,3117,1698
2849,3128,1702
2861,3119,1699
2873,3111,1703
2885,3117,1698
2897,3110,1702
2909,3097,1700
2920,3104,1698
2932,3111,1706
2944,3113,1700
2956,3111,1708
2968,3106,1698
2980,3114,1706
2991,3111,1704
3003,3111,1702
3015,3120,1697
3027,3124,1708
3039,3123,1700
3050,3147,1703
3062,3156,1701
3074,3168,1705
3086,3164,1708
3098,3167,1702
3110,3157,1704
3121,3155,1706
3133,3160,1706
3145,3172,1704
3157,3158,1709
3169,3161,1703
3181,3153,1703
3192,3150,1700
3204,3166,1703
3216,3166,1701
3228,3165,1705
3240,3170,1708
3252,3161,1710
3263,3167,1705
3275,3167,1707
3287,3169,1705
3299,3153,1702
3311,3152,1699
3323,3155,1706
3334,3150,1706
3346,3130,1708
3358,3131,1705
3370,3137,1707
3382,3143,1702
3394,3132,1700
3405,3116,1699
3417,3120,1702
3429,3113,1700
3441,3126,1701
3453,3122,1699
3464,3126,1698
3476,3120,1698
3488,3113,1702
3500,3121,1693
3512,3115,1704
3524,3107,1678
3535,3121,1703
3547,3135,1700
3559,3120,1699
3571,3101,1691
3583,3109,1699
3595,3112,1699
3606,3121,1699
3618,3113,1695
3630,3104,1701
3642,3106,1697
3654,3096,1695
3666,3091,1699
3677,3083,1697
3689,3085,1697
3701,3082,1690
3713,3076,1697
3725,3087,1699
3737,3068,1692
3748,3068,1722
3760,3063,1700
3772,3062,1705
3784,3069,1705
3796,3060,1697
3807,3062,1696
3819,3073,1697
3831,3079,1696
3843,3066,1698
3855,3064,1694
3867,3070,1683
3878,3072,1698
3890,3072,1707
3902,3074,1697
3914,3103,1680
3926,3099,1692
3938,3094,1694
3949,3094,1697
3961,3096,1696
3973,3114,1699
3985,3102,1696
3997,3099,1695
4009,3117,1695
4020,3120,1701
4032,3121,1698
4044,3130,1698
4056,3132,1702
4068,3119,1704
4079,3130,1698
4091,3131,1698
4103,3123,1696
4115,3120,1702
4127,3110,1703
4139,3108,1699
4150,3108,1700
4162,3110,1704
4174,3116,1702
4186,3103,1706
4198,3078,1707
4210,3093,1703
4221,3129,1704
4233,3118,1697
4245,3100,1702
4257,3089,1698
4269,3084,1702
4281,3075,1706
4292,3104,1701
4304,3117,1699
4316,3125,1700
4328,3094,1702
4340,3100,1699
4351,3170,1707
4363,3127,1701
4375,3134,1698
4387,3121,1701
4399,3100,1705
4411,3075,1702
4422,3081,1697
4434,3102,1703
4446,3068,1700
4458,3074,1700
4470,3068,1699
4482,3102,1700
4493,3064,1701
4505,3063,1697
4517,3061,1698
4529,3049,1697
4541,3064,1695
4553,3074,1702
4564,3091,1702
4576,3077,1699
4588,3065,1700
4600,3079,1700
4612,3087,1696
4623,3097,1706
4635,3085,1704
4647,3059,1698
4659,3050,1709
4671,3038,1702
4683,3025,1698
4694,3002,1699
4706,3002,1702
4718,3027,1705
4730,3024,1705
4742,3030,1704
4754,3026,1699
4765,3008,1702
4777,3000,1697
4789,3010,1700
4801,2986,1699
4813,2977,1676
4825,2976,1693
4836,2992,1694
4848,3004,1697
4860,3015,1692
4872,2994,1698
4884,2997,1695
4895,3016,1693
4907,2998,1688
4919,2986,1688
4931,2985,1690
4943,2972,1693
4955,2952,1683
4966,2998,1693
4978,3017,1696
4990,3014,1693
5002,3019,1693
5014,3042,1691
5026,3035,1688
5037,3030,1691
5049,3039,1699
5061,3043,1692
5073,3030,1692
5085,3012,1697
5097,3032,1692
5108,3016,1684
5120,2989,1694
5132,2986,1691
5144,2994,1691
5156,3049,1700
5168,3068,1695
5179,3098,1700
5191,3127,1688
5203,3110,1693
5215,3112,1693
5227,3076,1689
5238,3053,1698
5250,3081,1694
5262,3067,1700
5274,3075,1697
5286,3055,1704
5298,3029,1701
5309,3023,1690
5321,3028,1693
5333,3044,1689
5345,3036,1691
5357,3038,1694
5369,3038,1692
5380,3046,1691
5392,3037,1693
5404,3050,1691
5416,3042,1692
5428,3043,1690
5440,3041,1693
5451,3035,1692
5463,3041,1692
5475,3049,1696
5487,3037,1694
5499,3055,1689
5511,3073,1686
5522,3087,1687
5534,3085,1689
5546,3095,1690
5558,3104,1689
5570,3102,1689
5582,3105,1691
5593,3110,1692
5605,3116,1691
5617,3111,1688
5629,3088,1693
5641,3098,1691
5652,3108,1691
5664,3092,1695
5676,3082,1692
5688,3086,1696
5700,3087,1698
5712,3093,1698
5723,3095,1698
5735,3107,1699
5747,3086,1697
5759,3106,1692
5771,3112,1693
5783,3114,1691
5794,3120,1690
5806,3136,1692
5818,3128,1695
5830,3134,1688
5842,3139,1691
5854,3143,1690
5865,3146,1697
5877,3152,1691
5889,3130,1697
5901,3149,1697
5913,3136,1697
5925,3129,1697
5936,3144,1695
5948,3161,1693
5960,3139,1690
5972,3147,1692
5984,3157,1683
5995,3168,1693
6007,3161,1691
6019,3153,1690
6031,3170,1692
6043,3173,1686
6055,3152,1690
6066,3118,1691
6078,3145,1690
6090,3161,1692
6102,3156,1692
6114,3156,1694
6126,3167,1693
6137,3173,1694
6149,3166,1694
6161,3176,1693
6173,3141,1690
6185,3097,1704
6197,3100,1702
6208,3093,1692
6220,3106,1701
6232,3132,1706
6244,3105,1700
6256,3099,1709
6268,3105,1701
6279,3104,1704
6291,3035,1699
6303,3041,1701
6315,3055,1700
6327,3030,1691
6338,3013,1693
6350,3028,1695
6362,3010,1693
6374,2999,1693
6386,3000,1700
6398,3026,1697
6409,3029,1702
6421,3034,1696
6433,3049,1687
6445,3051,1691
6457,3053,1696
6469,3049,1691
6480,3059,1693
6492,3061,1698
6504,3047,1703
6516,3021,1693
6528,3022,1695
6540,3020,1696
6551,3012,1693
6563,3028,1700
6575,3032,1703
6587,3034,1697
6599,3025,1693
6610,3019,1700
6622,3030,1698
6634,3020,1700
6646,3018,1705
6658,3020,1697
6670,3043,1702
6681,3012,1698
6693,3018,1697
6705,3003,1698
6717,2982,1697
6729,2987,1703
6741,3009,1692
6752,2998,1693
6764,2992,1696
6776,3019,1703
6788,3066,1699
6800,3083,1698
6812,3076,1696
6823,3084,1703
6835,3085,1701
6847,3082,1699
6859,3056,1684
6871,3054,1699
6882,3054,1702
6894,3049,1697
6906,3026,1697
6918,3025,1702
6930,3029,1698
6942,3024,1699
6953,3028,1700
6965,3017,1698
6977,3025,1696
6989,2974,1691
7001,2965,1694
7013,2930,1684
7024,2965,1687
7036,2961,1693
7048,2968,1690
7060,3003,1693
7072,2963,1685
7084,2942,1690
7095,2981,1698
7107,2976,1696
7119,2973,1695
7131,2981,1695
7143,2972,1701
7155,2966,1700
7166,2958,1695
7178,2962,1696
7190,2960,1694
7202,2963,1699
7214,2955,1695
7225,2963,1695
7237,2961,1696
7249,2970,1698
7261,2984,1696
7273,2992,1697
7285,2993,1699
7296,2978,1691
7308,2980,1699
7320,2996,1694
7332,2990,1690
7344,2976,1691
7356,2964,1690
7367,2962,1691
7379,2975,1691
7391,2980,1706
7403,2971,1691
7415,2977,1689
7427,2983,1694
7438,2978,1693
7450,2981,1692
7462,2989,1697
7474,3001,1681
7486,2990,1690
7498,2992,1697
7509,2993,1690
7521,2998,1693
7533,3010,1685
7545,3023,1691
7557,3018,1690
7568,3004,1692
7580,2977,1691
7592,2983,1694
7604,3001,1688
7616,2976,1687
7628,2974,1693
7639,2975,1693
7651,2960,1699
7663,2961,1694
7675,2980,1691
7687,2975,1692
7699,2972,1694
7710,2985,1690
7722,3017,1691
7734,3022,1696
7746,3021,1692
7758,3014,1683
7770,3007,1693
7781,3010,1686
7793,3020,1686
7805,3001,1692
7817,2997,1694
7829,3012,1688
7841,3005,1690
7852,2983,1689
7864,3013,1698
7876,3004,1696
7888,2994,1691
7900,3006,1675
7912,2992,1694
7923,2979,1696
7935,2961,1694
7947,2961,1694
7959,2978,1695
7971,2980,1693
7982,2969,1696
7994,2975,1697
8006,2973,1695
8018,2952,1693
8030,2970,1694
8042,2975,1705
8053,2992,1694
8065,2978,1694
8077,2972,1697
8089,2974,1694
8101,2964,1695
8113,2973,1694
8124,2967,1700
8136,2963,1693
8148,2962,1693
8160,2991,1699
8172,2980,1692
8184,2975,1692
8195,2972,1699
8207,2979,1693
8219,2980,1695
8231,2979,1693
8243,2967,1695
8254,2982,1696
8266,2973,1696
8278,2983,1694
8290,2981,1693
8302,2975,1697
8314,2981,1697
8325,2984,1696
8337,2974,1693
8349,2984,1690
8361,2968,1689
8373,2970,1692
8385,2990,1696
8396,2999,1700
8408,2999,1692
8420,2994,1700
8432,2993,1697
8444,3006,1696
8456,3006,1694
8467,2997,1694
8479,2994,1695
8491,2995,1695
8503,2988,1694
8515,2988,1702
8527,2992,1707
8538,2995,1694
8550,2987,1694
8562,2990,1696
8574,2987,1693
8586,2994,1701
8597,2982,1697
8609,2988,1690
8621,3003,1695
8633,2997,1694
8645,2995,1691
8657,3006,1700
8668,3003,1699
8680,2995,1699
8692,2997,1696
8704,2993,1700
8716,2999,1698
8728,3001,1696
8739,2993,1698
8751,3004,1693
8763,3006,1706
8775,2995,1697
8787,2995,1698
8799,3009,1697
8810,2983,1693
8822,2969,1694
8834,2971,1694
8846,2979,1693
8858,2968,1700
8870,2972,1695
8881,2979,1690
8893,2979,1696
8905,2977,1698
8917,2998,1692
8929,2983,1697
8941,2997,1690
8952,2982,1696
8964,2987,1699
8976,2970,1695
8988,2979,1692
9000,2977,1691
9011,2993,1694
9023,3005,1695
9035,2991,1697
9047,2990,1690
9059,3013,1693
9071,3003,1697
9082,2990,1692
9094,2987,1693
9106,3012,1695
9118,3015,1697
9130,3012,1697
9142,3013,1695
9153,3006,1697
9165,3012,1696
9177,3012,1695
9189,2994,1695
9201,3003,1695
9213,3001,1694
9224,2995,1696
9236,2987,1700
9248,2990,1699
9260,2990,1694
9272,2994,1695
9284,2985,1694
9295,2989,1681
9307,3001,1684
9319,3000,1696
9331,2982,1691
9343,2980,1699
9354,2985,1702
9366,2988,1696
9378,2980,1696
9390,2984,1694
9402,2974,1706
9414,2992,1696
9425,2988,1698
9437,2980,1697
9449,2978,1693
9461,2980,1694
9473,2969,1696
9485,2978,1697
9496,2982,1688
9508,2977,1697
9520,2982,1696
9532,3004,1690
9544,2996,1690
9556,2976,1691
9567,2988,1695
9579,2983,1695
9591,2988,1694
9603,2982,1692
9615,2984,1695
9627,2982,1694
9638,2990,1694
9650,2990,1697
9662,3007,1692
9674,2942,1701
9686,2948,1675
9698,2954,1696
9709,2949,1693
9721,2961,1697
9733,2987,1696
9745,2985,1697
9757,2972,1698
9769,2968,1697
9780,2969,1698
9792,2967,1696
9804,2976,1695
9816,2973,1692
9828,2987,1697
9839,2977,1698
9851,2988,1689
9863,2989,1694
9875,2997,1700
9887,2976,1693
9899,2981,1697
9910,2967,1700
9922,2990,1699
9934,3000,1689
9946,2999,1694
9958,2990,1696
9970,2994,1693
9981,2985,1698
9993,2969,1692
10005,2972,1697
10017,2980,1693
10029,2972,1701
10041,2979,1699
10052,2978,1686
10064,2976,1694
10076,2979,1694
10088,2978,1693
10100,2975,1696
10111,2973,1691
10123,2978,1691
10135,2974,1698
10147,2972,1693
10159,2987,1696
10171,2977,1700
10182,2988,1699
10194,2975,1696
10206,2981,1695
10218,2986,1697
10230,2992,1702
10242,3002,1694
10253,2997,1701
10265,2994,1700
10277,2987,1697
10289,2976,1696
10301,2996,1697
10313,2982,1704
10324,2999,1695
10336,2998,1692
10348,3000,1699
10360,3001,1697
10372,2989,1689
10384,2986,1693
10395,2989,1694
10407,2985,1698
10419,2993,1697
10431,2996,1697
10443,2991,1699
10455,2992,1692
10466,2997,1699
10478,2986,1698
10490,2989,1698
10502,3002,1693
10514,2998,1690
10526,2997,1698
10537,2995,1701
10549,2987,1696
10561,2973,1705
10573,2992,1703
10585,2983,1702
10597,2983,1702
10608,2989,1699
10620,3005,1690
10632,3017,1698
10644,3007,1691
10656,3014,1690
10667,3020,1693
10679,3019,1686
10691,3019,1687
10703,3014,1691
10715,3023,1688
10727,3031,1699
10738,3023,1678
10750,3024,1692
10762,3033,1693
10774,3027,1692
10786,3029,1691
10798,3037,1712
10809,3039,1687
10821,3023,1692
10833,3019,1688
10845,3027,1686
10857,3040,1690
10869,3033,1689
10880,3037,1688
10892,3039,1692
10904,3037,1688
10916,3032,1693
10928,3015,1691
10940,3028,1687
10951,3015,1689
10963,3017,1693
10975,3021,1695
10987,3026,1688
10999,3026,1689
11011,3013,1689
11022,3026,1691
11034,3010,1694
11046,3015,1692
11058,3035,1687
11070,3037,1690
11082,3038,1683
11093,3028,1689
11105,3037,1693
11117,3043,1689
11129,3028,1685
11141,3029,1688
11152,3031,1687
11164,3043,1684
11176,3020,1688
11188,3027,1691
11200,3002,1691
11212,3010,1676
11223,3019,1689
11235,3011,1689
11247,3010,1688
11259,3017,1685
11271,3033,1681
11283,3040,1690
11294,3040,1684
11306,3036,1687
11318,3046,1686
11330,3057,1684
11342,3051,1686
11354,3025,1687
11365,3032,1686
11377,3024,1688
11389,3033,1686
11401,3026,1692
11413,3030,1685
11425,3031,1686
11436,3039,1687
11448,3030,1688
11460,3033,1687
11472,3036,1689
11484,3000,1688
11496,2994,1688
11507,3000,1687
11519,2997,1688
11531,2990,1686
11543,3000,1680
11555,3003,1681
11567,3013,1687
11578,3037,1688
11590,2997,1687
11602,3033,1691
11614,3023,1696
11626,3019,1691
11638,3035,1691
11649,3025,1698
11661,3020,1692
11673,3034,1692
11685,3027,1688
11697,3035,1691
11708,3025,1689
11720,3014,1691
11732,3011,1686
11744,3009,1690
11756,3018,1709
11768,3004,1694
11779,3014,1689
11791,3008,1698
11803,3008,1693
11815,3008,1691
11827,2998,1688
11839,3033,1692
11850,3021,1689
11862,3028,1690
11874,3021,1690
11886,3012,1688
11898,3008,1688
11910,3020,1691
11921,3022,1688
11933,3009,1695
11945,3011,1690
11957,3011,1689
11969,3007,1689
11981,3010,1690
11992,3017,1690
12004,3012,1691
12016,3009,1689
12028,3009,1690
12040,3014,1693
12052,3013,1690
12063,3005,1689
12075,3001,1691
12087,3017,1692
12099,3010,1683
12111,3021,1687
12123,3013,1685
12134,3010,1689
12146,3009,1687
12158,3014,1691
12170,3011,1691
12182,3020,1685
12193,3008,1688
12205,2999,1694
12217,3013,1687
12229,3008,1693
12241,3008,1691
12253,2993,1685
12264,3006,1688
12276,3009,1688
12288,2993,1684
12300,2991,1683
12312,3002,1686
12324,3005,1682
12335,2970,1689
12347,2973,1690
12359,2985,1687
12371,2995,1687
12383,2969,1687
12395,3018,1692
12406,3023,1690
12418,3066,1695
12430,3076,1696
12442,3085,1696
12454,3088,1695
12466,3074,1692
12477,3072,1685
12489,3073,1692
12501,3077,1698
12513,3075,1699
12525,3065,1698
12537,3083,1694
12548,3089,1697
12560,3091,1695
12572,3084,1693
12584,3067,1694
12596,3038,1688
12608,3012,1682
12619,3023,1693
12631,3008,1687
12643,2984,1693
12655,3013,1692
12667,3030,1691
12679,3019,1684
12690,3020,1683
12702,3023,1685
12714,3018,1687
12726,3033,1693
12738,3037,1689
12750,2999,1692
12761,3006,1691
12773,3005,1688
12785,2995,1695
12797,2982,1686
12809,3008,1687
12821,3014,1692
12832,3012,1686
12844,3011,1687
12856,3032,1685
12868,3021,1691
12880,3042,1684
12891,3044,1686
12903,3040,1690
12915,3042,1690
12927,3049,1695
12939,3073,1690
12951,3051,1687
12962,3060,1691
12974,3052,1688
12986,3074,1688
12998,3059,1689
13010,3059,1690
13022,3078,1692
13033,3074,1687
13045,3081,1692
13057,3079,1688
13069,3086,1687
13081,3084,1688
13093,3073,1685
13104,3086,1689
13116,3097,1688
13128,3083,1689
13140,3075,1692
13152,3079,1688
13164,3086,1690
13175,3088,1690
13187,3078,1688
13199,3084,1685
13211,3083,1690
13223,3075,1690
13234,3069,1688
13246,3073,1690
13258,3076,1696
13270,3057,1691
13282,3054,1686
13294,3062,1686
13305,3067,1694
13317,3044,1690
13329,3055,1689
13341,3060,1686
13353,3065,1684
13365,3079,1685
13376,3072,1685
13388,3083,1689
13400,3096,1687
13412,3085,1684
13424,3098,1681
13436,3085,1683
13447,3073,1687
13459,3089,1687
13471,3086,1689
13483,3082,1685
13495,3072,1684
13507,3064,1693
13518,3075,1693
13530,3083,1694
13542,3085,1692
13554,3077,1690
13566,3101,1692
13578,3106,1694
13589,3095,1700
13601,3090,1697
13613,3110,1699
13625,3111,1691
13637,3114,1693
13649,3127,1695
13660,3130,1700
13672,3133,1700
13684,3128,1690
13696,3132,1692
13708,3130,1699
13720,3147,1700
13731,3146,1696
13743,3144,1707
13755,3147,1689
13767,3142,1703
13779,3153,1698
13791,3156,1695
13802,3150,1696
13814,3151,1701
13826,3154,1691
13838,3161,1702
13850,3151,1700
13861,3153,1701
13873,3166,1701
13885,3158,1697
13897,3158,1697
13909,3149,1697
13921,3152,1702
13932,3160,1698
13944,3155,1696
13956,3155,1700
13968,3172,1698
13980,3163,1699
13992,3166,1706
14003,3172,1694
14015,3168,1701
14027,3157,1703
14039,3156,1691
14051,3152,1699
14063,3154,1697
14074,3150,1700
14086,3149,1700
14098,3141,1697
14110,3128,1700
14122,3120,1696
14134,3130,1695
14145,3127,1699
14157,3134,1694
14169,3140,1697
14181,3136,1699
14193,3131,1699
14205,3125,1696
14216,3117,1700
14228,3129,1692
14240,3121,1698
14252,3128,1709
14264,3125,1695
14276,3136,1699
14287,3143,1699
14299,3129,1695
14311,3136,1697
14323,3129,1700
14335,3115,1696
14346,3098,1697
14358,3126,1696
14370,3112,1694
14382,3083,1698
14394,3110,1698
14406,3058,1694
14417,3086,1695
14429,3174,1700
14441,3124,1676
14453,3067,1700
14465,3027,1707
14477,3119,1707
14488,3112,1698
14500,3106,1701
14512,3111,1699
14524,3066,1703
14536,3070,1693
14548,3084,1695
14559,3044,1696
14571,3056,1693
14583,3082,1693
14595,3056,1694
14607,3021,1696
14619,3051,1699
14630,3075,1693
14642,3067,1698
14654,3070,1696
14666,3073,1692
14678,3073,1702
14690,3086,1700
14701,3093,1697
14713,3093,1697
14725,3097,1701
14737,3090,1694
14749,3066,1692
14761,3060,1699
14772,3078,1699
14784,3087,1695
14796,3085,1693
14808,3097,1703
14820,3109,1695
14832,3099,1694
14843,3106,1699
14855,3123,1693
14867,3110,1700
14879,3090,1697
14891,3095,1700
14903,3088,1697
14914,3078,1696
14926,3073,1695
14938,3086,1696
14950,3083,1692
14962,3080,1694
14974,3069,1698
14985,3086,1701
14997,3077,1702
15009,3063,1702
15021,3060,1706
15033,3069,1699
15045,3073,1691
15056,3059,1698
15068,3067,1701
15080,3065,1700
15092,3038,1701
15104,3036,1699
15115,3054,1697
15127,3058,1700
15139,3048,1699
15151,3043,1695
15163,3005,1694
15175,2998,1691
15186,3006,1696
15198,3022,1696
15210,3027,1697
15222,3038,1698
15234,3041,1699
15246,3060,1694
15257,3077,1702
15269,3071,1696
15281,3069,1705
15293,3071,1699
15305,3073,1701
15317,3062,1699
15328,3103,1700
15340,3106,1696
15352,3107,1696
15364,3099,1707
15376,3104,1702
15388,3108,1698
15399,3102,1697
15411,3095,1700
15423,3106,1701
15435,3097,1700
15447,3103,1701
15459,3089,1700
15470,3047,1699
15482,3050,1706
15494,3058,1696
15506,3049,1695
15518,3046,1698
15530,3055,1698
15541,3056,1703
15553,3057,1700
15565,3051,1695
15577,3057,1699
15589,3064,1701
15601,3051,1694
15612,3063,1698
15624,3071,1697
15636,3056,1698
15648,3055,1698
15660,3062,1694
15671,3052,1699
15683,3049,1698
15695,3065,1702
15707,3074,1704
15719,3069,1699
15731,3066,1699
15742,3069,1701
15754,3037,1699
15766,3043,1697
15778,3059,1693
15790,3047,1693
15802,3032,1698
15813,3025,1696
15825,3013,1696
15837,3029,1693
15849,3050,1691
15861,3039,1691
15873,3061,1682
15884,3058,1684
15896,3052,1680
15908,3047,1686
15920,3046,1689
15932,3036,1688
15944,3032,1687
15955,3028,1694
15967,2997,1697
15979,3022,1697
15991,3023,1696
16003,3015,1698
16015,3022,1695
16026,3002,1700
16038,3000,1700
16050,2998,1700
16062,3018,1696
16074,3025,1695
16086,3024,1693
16097,3034,1696
16109,3029,1700
16121,3035,1696
16133,3034,1691
16145,3041,1697
16157,3043,1690
16168,3030,1689
16180,3033,1696
16192,3068,1696
16204,3064,1693
16216,3062,1694
16228,3062,1699
16239,3063,1696
16251,3059,1693
16263,3062,1692
16275,3065,1690
16287,3063,1692
16299,3059,1692
16310,3046,1700
16322,3059,1698
16334,3064,1696
16346,3060,1696
16358,3032,1694
16370,3029,1693
16381,3041,1695
16393,3035,1696
16405,3024,1692
16417,3062,1698
16429,3032,1696
16441,3021,1702
16452,3040,1692
16464,3026,1700
16476,3057,1699
16488,3052,1703
16500,3063,1702
16511,3050,1717
16523,3061,1699
16535,3069,1714
16547,3017,1691
16559,3028,1693
16571,3074,1696
16582,3088,1693
16594,3098,1700
16606,3095,1704
16618,3103,1697
16630,3118,1701
16642,3124,1697
16653,3099,1693
16665,3094,1695
16677,3107,1698
16689,3094,1693
16701,3087,1696
16713,3035,1696
16724,3072,1693
16736,3049,1680
16748,3082,1696
16760,3003,1696
16772,3009,1688
16784,3035,1695
16796,3074,1693
16807,3052,1690
16819,3078,1696
16831,3067,1694
16843,3007,1711
16855,3069,1697
16867,3077,1705
16878,3075,1701
16890,3049,1697
16902,3084,1700
16914,3078,1696
16926,3056,1695
16937,3062,1697
16949,3079,1693
16961,3060,1696
16973,3080,1697
16985,3116,1698
16997,3098,1696
17008,3084,1697
17020,3109,1700
17032,3104,1699
17044,3109,1704
17056,3114,1709
17068,3139,1702
17079,3127,1696
17091,3121,1699
17103,3137,1696
17115,3121,1698
17127,3117,1697
17139,3038,1693
17150,3046,1693
17162,3054,1697
17174,3059,1693
17186,3164,1700
17198,3161,1703
17210,3133,1701
17221,3158,1704
17233,3166,1702
17245,3160,1699
17257,3115,1698
17269,3072,1696
17281,3064,1698
17292,3067,1693
17304,3056,1697
17316,3060,1696
17328,3052,1694
17340,3052,1696
17352,3054,1693
17363,3058,1693
17375,3033,1691
17387,3037,1694
17399,3051,1693
17411,3034,1698
17423,3024,1692
17434,3009,1700
17446,3016,1697
17458,3007,1705
17470,2996,1694
17482,3000,1695
17494,2992,1700
17505,2995,1700
17517,2995,1695
17529,3013,1695
17541,2978,1696
17553,2970,1693
17565,2962,1696
17576,2984,1700
17588,2975,1693
17600,2981,1697
17612,3012,1696
17624,3023,1702
17636,3028,1699
17647,3043,1701
17659,3039,1699
17671,3036,1699
17683,3038,1698
17695,3033,1691
17707,3053,1697
17718,3045,1703
17730,3036,1704
17742,3050,1700
17754,3055,1702
17766,3054,1699
17778,3046,1697
17789,3043,1700
17801,3049,1698
17813,3039,1700
17825,3040,1699
17837,3059,1702
17848,3043,1698
17860,3047,1700
17872,3022,1700
17884,3022,1700
17896,3009,1700
17908,3022,1701
17919,3016,1701
17931,3027,1701
17943,3028,1704
17955,3016,1706
17967,3022,1710
17979,3020,1706
17990,3021,1698
18002,3023,1702
18014,3028,1706
18026,3035,1702
18038,3022,1701
18050,3024,1699
18061,3033,1701
18073,3028,1683
18085,3043,1702
18097,3047,1698
18109,3051,1704
18121,3060,1702
18132,3048,1701
18144,3044,1699
18156,3056,1701
18168,3045,1702
18180,3054,1703
18192,3059,1704
18203,3054,1707
18215,3047,1706
18227,3040,1704
18239,3045,1707
18251,3049,1702
18263,3047,1705
18274,3059,1700
18286,3069,1706
18298,3057,1705
18310,3066,1700
18322,3089,1705
18334,3093,1704
18345,3060,1701
18357,3051,1701
18369,3056,1701
18381,3068,1697
18393,3066,1690
18405,3082,1702
18416,3087,1703
18428,3077,1707
18440,3079,1700
18452,3073,1694
18464,3076,1701
18476,3086,1698
18487,3081,1702
18499,3079,1700
18511,3092,1703
18523,3091,1695
18535,3078,1701
18546,3092,1695
18558,3092,1696
18570,3095,1700
18582,3089,1700
18594,3088,1697
18606,3093,1701
18617,3081,1695
18629,3091,1696
18641,3098,1691
18653,3083,1703
18665,3090,1695
18677,3095,1696
18688,3096,1701
18700,3089,1701
18712,3071,1702
18724,3078,1703
18736,3084,1703
18748,3080,1700
18759,3087,1700
18771,3095,1698
18783,3105,1695
18795,3096,1695
18807,3102,1698
18819,3103,1697
18830,3118,1694
18842,3122,1701
18854,3121,1681
18866,3104,1694
18878,3094,1702
18890,3083,1699
18901,3087,1701
18913,3086,1698
18925,3108,1697
18937,3103,1700
18949,3113,1703
18961,3120,1698
18972,3111,1699
18984,3113,1715
18996,3092,1695
19008,3073,1691
19020,3073,1692
19032,3110,1696
19043,3109,1695
19055,3104,1695
19067,3098,1697
19079,3109,1696
19091,3107,1695
19103,3107,1695
19114,3103,1695
19126,3087,1693
19138,3070,1699
19150,3071,1697
19162,3081,1700
19174,3110,1693
19185,3110,1692
19197,3106,1696
19209,3082,1685
19221,3038,1702
19233,3047,1699
19245,3020,1697
19256,2982,1703
19268,2973,1701
19280,2991,1701
19292,2989,1696
19304,2990,1699
19316,2983,1690
19327,2991,1697
19339,2992,1697
19351,2992,1627
19363,2981,1706
19375,3004,1697
19387,3005,1712
19398,3036,1691
19410,3006,1693
19422,2988,1696
19434,3012,1694
19446,2990,1691
19458,3007,1695
19469,3009,1694
19481,3018,1705
19493,3043,1695
19505,3036,1694
19517,3009,1703
19529,3050,1696
19540,3033,1700
19552,3031,1705
19564,3051,1700
19576,3061,1706
19588,3053,1700
19600,3000,1692
19611,2970,1694
19623,2988,1691
19635,2993,1699
19647,2975,1697
19659,2954,1702
19671,2962,1698
19682,2992,1697
19694,2982,1703
19706,2991,1701
19718,3028,1708
19730,3001,1706
19742,2970,1703
19753,2980,1701
19765,2955,1702
19777,2961,1708
19789,3011,1703
19801,3069,1708
19812,3048,1706
19824,2967,1701
19836,2937,1704
19848,2973,1700
19860,2973,1693
19872,2992,1692
19883,2991,1692
19895,2990,1694
19907,2981,1700
19919,2988,1691
19931,3094,1702
19943,3081,1693
19954,3052,1695
19966,3059,1697
19978,3069,1692
19990,3063,1698
20002,3084,1694
20014,3029,1689
20025,2943,1690
20037,2954,1686
20049,2993,1686
20061,3018,1693
20073,3007,1691
20085,2967,1696
20096,2966,1692
20108,2977,1687
20120,2968,1692
20132,2925,1697
20144,2955,1692
20156,2925,1693
20167,2925,1683
20179,2914,1688
20191,2931,1690
20203,2957,1691
20215,2974,1692
20227,2945,1695
20238,2972,1687
20250,2965,1689
20262,2920,1688
20274,2957,1687
20286,2973,1691
20298,2904,1698
20309,2920,1685
20321,2947,1688
20333,2919,1689
20345,2922,1688
20357,2916,1689
20369,2936,1688
20380,2939,1692
20392,2928,1690
20404,2919,1685
20416,2926,1681
20428,2922,1684
20440,2916,1684
20451,2922,1687
20463,2929,1688
20475,2918,1683
20487,2926,1683
20499,2919,1683
20511,2916,1686
20522,2923,1688
20534,2914,1684
20546,2906,1689
20558,2923,1686
20570,2927,1688
20582,2916,1688
20593,2920,1689
20605,2922,1681
20617,2901,1685
20629,2914,1685
20641,2907,1685
20653,2913,1690
20664,2908,1681
20676,2903,1684
20688,2903,1689
20700,2919,1686
20712,2903,1689
20724,2908,1683
20735,2921,1693
20747,2909,1690
20759,2905,1689
20771,2910,1686
20783,2920,1694
20795,2905,1685
20806,2925,1688
20818,2916,1687
20830,2936,1694
20842,2923,1688
20854,2919,1694
20866,2920,1687
20877,2925,1692
20889,2921,1687
20901,2926,1696
20913,2944,1693
20925,2929,1690
20937,2940,1693
20948,2939,1690
20960,2930,1692
20972,2939,1689
20984,2906,1689
20996,2916,1688
21008,2914,1693
21019,2926,1689
21031,2923,1688
21043,2914,1689
21055,2920,1691
21067,2911,1688
21079,2919,1690
21090,2926,1693
21102,2909,1685
21114,2911,1689
21126,2912,1686
21138,2911,1686
21150,2927,1691
21161,2931,1690
21173,2933,1687
21185,2932,1679
21197,2937,1689
21209,2925,1689
21221,2935,1689
21232,2934,1689
21244,2938,1686
21256,2923,1687
21268,2931,1695
21280,2933,1693
21292,2930,1693
21303,2936,1693
21315,2931,1691
21327,2929,1686
21339,2923,1684
21351,2921,1690
21363,2932,1691
21374,2930,1689
21386,2926,1687
21398,2934,1688
21410,2916,1693
21422,2899,1690
21434,2905,1692
21445,2908,1687
21457,2908,1687
21469,2907,1685
21481,2908,1688
21493,2928,1692
21505,2962,1692
21516,2901,1688
21528,2900,1691
21540,2962,1685
21552,2965,1693
21564,2956,1687
21576,2955,1693
21587,2967,1693
21599,2940,1691
21611,2891,1685
21623,2891,1682
21635,2896,1687
21647,2897,1684
21658,2895,1689
21670,2903,1687
21682,2903,1685
21694,2900,1687
21706,2903,1685
21717,2916,1685
21729,2913,1688
21741,2977,1695
21753,2983,1690
21765,2989,1691
21777,2976,1694
21788,2972,1694
21800,2973,1690
21812,2976,1691
21824,2962,1694
21836,2960,1690
21848,2960,1688
21859,2963,1691
21871,2966,1689
21883,2966,1693
21895,2975,1692
21907,2977,1693
21919,2965,1674
21930,2977,1689
21942,2980,1692
21954,2979,1691
21966,2966,1689
21978,2970,1697
21990,2980,1692
22002,2983,1691
22013,2904,1689
22025,2909,1686
22037,2911,1694
22049,2918,1693
22061,2990,1696
22073,2995,1690
22084,2997,1692
22096,2993,1691
22108,2972,1689
22120,2964,1691
22132,2956,1688
22144,2965,1692
22155,2961,1691
22167,2966,1690
22179,2962,1696
22191,2946,1690
22203,2940,1688
22215,2911,1687
22226,2888,1683
22238,2900,1684
22250,2892,1685
22262,2898,1691
22274,2874,1687
22286,2891,1681
22297,2878,1684
22309,2875,1691
22321,2877,1690
22333,2901,1687
22345,2882,1689
22357,2896,1685
22368,2882,1686
22380,2914,1691
22392,2896,1685
22404,2900,1690
22416,2915,1690
22428,2917,1693
22439,2919,1687
22451,2914,1690
22463,2903,1689
22475,2916,1691
22487,2923,1688
22498,2891,1687
22510,2875,1685
22522,2888,1690
22534,2918,1690
22546,2908,1688
22558,2905,1685
22569,2913,1684
22581,2846,1686
22593,2846,1687
22605,2860,1680
22617,2855,1683
22629,2843,1688
22640,2926,1688
22652,2920,1693
22664,2907,1689
22676,2917,1695
22688,2934,1697
22700,2923,1687
22711,2923,1690
22723,2924,1695
22735,2930,1684
22747,2892,1687
22759,2925,1692
22771,2927,1699
22783,2862,1688
22794,2887,1690
22806,2888,1687
22818,2873,1689
22830,2871,1688
22842,2887,1686
22854,2873,1688
22865,2864,1686
22877,2855,1684
22889,2857,1686
22901,2854,1685
22913,2849,1681
22925,2844,1682
22936,2857,1687
22948,2846,1685
22960,2843,1687
22972,2851,1681
22984,2873,1688
22995,2869,1693
23007,2896,1688
23019,2904,1688
23031,2895,1686
23043,2915,1690
23055,2914,1692
23066,2896,1688
23078,2952,1690
23090,2997,1689
23102,2919,1690
23114,2927,1683
23126,2910,1690
23137,2918,1689
23149,2914,1692
23161,2914,1689
23173,2923,1697
23185,2923,1692
23197,2927,1689
23208,2915,1693
23220,2910,1692
23232,2908,1688
23244,2901,1687
23256,2898,1691
23268,2900,1690
23279,2917,1690
23291,2910,1689
23303,2907,1688
23315,2914,1685
23327,2902,1693
23339,2920,1688
23351,2916,1693
23362,2914,1687
23374,2924,1686
23386,2917,1686
23398,2909,1685
23410,2912,1693
23422,2909,1693
23433,2908,1691
23445,2920,1686
23457,2913,1692
23469,2905,1687
23481,2898,1690
23493,2888,1690
23504,2893,1689
23516,2899,1685
23528,2892,1688
23540,2894,1689
23552,2900,1689
23563,2891,1685
23575,2894,1693
23587,2918,1687
23599,2912,1688
23611,2909,1685
23623,2915,1697
23634,2907,1691
23646,2903,1684
23658,2911,1694
23670,2912,1684
23682,2927,1694
23694,2922,1689
23705,2926,1690
23717,2933,1687
23729,2925,1692
23741,2928,1688
23753,2925,1692
23765,2930,1682
23777,2918,1690
23788,2922,1687
23800,2931,1692
23812,2920,1688
23824,2929,1690
23836,2922,1685
23848,2921,1692
23859,2934,1691
23871,2919,1690
23883,2929,1688
23895,2927,1689
23907,2927,1694
23919,2919,1687
23930,2922,1687
23942,2921,1687
23954,2927,1684
23966,2924,1686
23978,2917,1688
23990,2915,1686
24001,2940,1688
24013,2927,1685
24025,2928,1688
24037,2940,1693
24049,2931,1686
24061,2916,1684
24072,2932,1687
24084,2924,1687
24096,2945,1688
24108,2932,1688
24120,2943,1688
24132,2952,1687
24143,2955,1686
24155,2944,1691
24167,2948,1692
24179,2947,1690
24191,2935,1691
24202,2950,1691
24214,2935,1691
24226,2950,1688
24238,2947,1693
24250,2961,1693
24262,2949,1684
24273,2956,1689
24285,2967,1696
24297,2993,1698
24309,2982,1693
24321,2973,1694
24333,2972,1693
24344,2976,1700
24356,2977,1694
24368,2979,1691
24380,2964,1686
24392,2976,1692
24404,2968,1690
24415,2956,1693
24427,2952,1695
24439,2946,1698
24451,2955,1694
24463,2935,1691
24475,2920,1692
24487,2886,1689
24498,2888,1687
24510,2884,1690
24522,2908,1692
24534,2907,1693
24546,2875,1692
24558,2862,1689
24569,2889,1690
24581,2880,1696
24593,2894,1692
24605,2905,1687
24617,2912,1691
24629,2896,1689
24640,2888,1687
24652,2875,1688
24664,2865,1686
24676,2888,1710
24688,2825,1684
24699,2821,1685
24711,2841,1686
24723,2861,1689
24735,2866,1690
24747,2873,1692
24759,2871,1685
24770,2859,1687
24782,2865,1685
24794,2864,1688
24806,2851,1687
24818,2875,1690
24830,2871,1691
24841,2865,1686
24853,2875,1691
24865,2861,1686
24877,2878,1689
24889,2862,1690
24901,2853,1689
24912,2850,1687
24924,2856,1686
24936,2866,1690
24948,2870,1689
24960,2866,1691
24972,2883,1688
24983,2890,1690
24995,2892,1693
25007,2878,1687
25019,2884,1687
25031,2906,1689
25043,2915,1696
25054,2937,1690
25066,2931,1695
25078,2903,1689
25090,2877,1686
25102,2884,1694
25114,2882,1688
25125,2872,1687
25137,2876,1687
25149,2866,1688
25161,2883,1687
25173,2911,1685
25185,2912,1692
25196,2921,1693
25208,2918,1688
25220,2909,1691
25232,2908,1690
25244,2907,1689
25256,2883,1685
25267,2876,1688
25279,2865,1689
25291,2855,1682
25303,2861,1685
25315,2867,1686
25327,2852,1682
25339,2848,1685
25350,2835,1682
25362,2847,1682
25374,2836,1680
25386,2848,1683
25398,2858,1669
25410,2842,1686
25421,2843,1689
25433,2848,1691
25445,2841,1687
25457,2852,1685
25469,2857,1689
25481,2847,1685
25492,2833,1681
25504,2846,1685
25516,2841,1683
25528,2855,1685
25540,2857,1681
25551,2877,1688
25563,2859,1688
25575,2868,1687
25587,2866,1687
25599,2840,1683
25611,2848,1688
25622,2853,1684
25634,2850,1695
25646,2866,1685
25658,2870,1690
25670,2868,1684
25682,2868,1681
25693,2889,1686
25705,2872,1682
25717,2875,1687
25729,2895,1689
25741,2875,1688
25753,2883,1689
25765,2872,1681
25776,2877,1679
25788,2880,1681
25800,2877,1687
25812,2867,1686
25824,2873,1686
25836,2895,1686
25847,2873,1684
25859,2871,1686
25871,2853,1685
25883,2875,1680
25895,2852,1687
25907,2851,1679
25918,2875,1684
25930,2846,1682
25942,2875,1686
25954,2866,1688
25966,2868,1682
25978,2919,1687
25989,2896,1688
26001,2944,1680
26013,2941,1691
26025,2948,1688
26037,2927,1691
26049,2925,1688
26060,2914,1687
26072,2895,1687
26084,2888,1686
26096,2873,1685
26108,2874,1684
26120,2878,1688
26131,2891,1685
26143,2876,1693
26155,2875,1686
26167,2885,1686
26179,2863,1686
26191,2864,1685
26202,2861,1685
26214,2856,1685
26226,2872,1687
26238,2868,1693
26250,2870,1685
26262,2853,1690
26273,2865,1691
26285,2863,1690
26297,2854,1690
26309,2857,1689
26321,2856,1689
26333,2848,1705
26344,2847,1689
26356,2861,1690
26368,2853,1694
26380,2854,1693
26392,2849,1697
26404,2860,1695
26416,2858,1694
26427,2851,1687
26439,2865,1694
26451,2873,1689
26463,2870,1686
26475,2879,1694
26487,2869,1693
26498,2877,1693
26510,2870,1691
26522,2874,1699
26534,2876,1691
26546,2907,1691
26558,2882,1694
26569,2871,1689
26581,2876,1692
26593,2873,1692
26605,2895,1692
26617,2897,1691
26629,2879,1691
26640,2887,1693
26652,2892,1696
26664,2939,1692
26676,2964,1684
26688,2938,1692
26700,2939,1702
26711,2965,1693
26723,2949,1692
26735,2936,1693
26747,2881,1687
26759,2902,1686
26771,2902,1688
26782,2914,1687
26794,2900,1688
26806,2912,1691
26818,2903,1686
26830,2910,1686
26842,2912,1689
26853,2897,1680
26865,2872,1682
26877,2865,1688
26889,2873,1684
26901,2853,1685
26913,2831,1684
26924,2827,1681
26936,2835,1687
26948,2865,1681
26960,2846,1681
26972,2912,1690
26984,2872,1686
26995,2911,1689
27007,2835,1686
27019,2848,1687
27031,2869,1686
27043,2894,1697
27055,2940,1675
27066,2937,1693
27078,2924,1690
27090,2938,1692
27102,2933,1688
27114,2921,1688
27126,2874,1688
27137,2879,1686
27149,2951,1696
27161,2933,1691
27173,2902,1686
27185,2876,1690
27197,2880,1681
27208,2858,1681
27220,2852,1684
27232,2855,1686
27244,2865,1686
27256,2875,1690
27268,2866,1681
27279,2874,1688
27291,2923,1688
27303,2885,1691
27315,2909,1689
27327,2910,1688
27339,2914,1687
27350,2925,1689
27362,2947,1689
27374,2936,1691
27386,2927,1693
27398,2943,1691
27410,2888,1687
27421,2939,1692
27433,2936,1691
27445,2935,1687
27457,2942,1691
27469,2938,1687
27481,2946,1688
27493,2942,1689
27504,2940,1689
27516,2952,1692
27528,2955,1692
27540,2951,1688
27552,2960,1689
27564,2968,1690
27575,2953,1688
27587,2965,1688
27599,2958,1694
27611,2965,1689
27623,2958,1690
27635,2939,1692
27646,2947,1686
27658,2934,1689
27670,2943,1693
27682,2936,1689
27694,2933,1687
27706,2927,1689
27717,2929,1692
27729,2932,1688
27741,2937,1693
27753,2955,1685
27765,2959,1691
27777,2950,1686
27788,2939,1693
27800,2940,1688
27812,2937,1689
27824,2938,1688
27836,2966,1693
27848,2929,1689
27859,2934,1689
27871,2934,1689
27883,2943,1689
27895,2956,1689
27907,2943,1690
27919,2949,1692
27930,2951,1690
27942,2953,1689
27954,2955,1684
27966,2948,1694
27978,2955,1694
27990,2944,1687
28001,2947,1700
28013,2943,1691
28025,2946,1691
28037,2935,1687
28049,2928,1692
28061,2931,1692
28073,2938,1690
28084,2932,1685
28096,2932,1685
28108,2930,1694
28120,2929,1689
28132,2933,1688
28144,2931,1686
28155,2931,1692
28167,2933,1689
28179,2928,1691
28191,2932,1689
28203,2935,1688
28215,2933,1691
28226,2935,1689
28238,2935,1689
28250,2946,1685
28262,2934,1692
28274,2938,1687
28286,2925,1687
28297,2938,1692
28309,2943,1690
28321,2933,1689
28333,2943,1691
28345,2939,1688
28357,2946,1693
28368,2937,1684
28380,2948,1691
28392,2942,1689
28404,2947,1689
28416,2943,1689
28428,2919,1688
28439,2917,1687
28451,2893,1668
28463,2898,1683
28475,2889,1686
28487,2889,1686
28499,2895,1684
28510,2881,1682
28522,2881,1680
28534,2881,1684
28546,2884,1697
28558,2873,1694
28570,2877,1686
28582,2877,1687
28593,2876,1684
28605,2882,1683
28617,2881,1687
28629,2884,1683
28641,2881,1684
28653,2896,1685
28664,2888,1685
28676,2892,1672
28688,2894,1684
28700,2887,1687
28712,2896,1682
28724,2891,1687
28735,2903,1686
28747,2895,1692
28759,2906,1691
28771,2902,1684
28783,2903,1680
28795,2898,1684
28806,2902,1686
28818,2893,1688
28830,2911,1688
28842,2913,1685
28854,2900,1687
28866,2911,1684
28877,2910,1687
28889,2908,1686
28901,2905,1686
28913,2897,1690
28925,2900,1688
28937,2898,1682
28948,2906,1680
28960,2968,1690
28972,2965,1698
28984,2975,1691
28996,2980,1690
29008,2974,1694
29019,2968,1703
29031,2990,1692
29043,3000,1690
29055,3032,1696
29067,3037,1697
29079,3022,1693
29090,3034,1693
29102,2950,1694
29114,3007,1697
29126,3004,1690
29138,2979,1689
29150,2970,1688
29162,2984,1690
29173,2984,1693
29185,2984,1689
29197,2996,1694
29209,2980,1700
29221,2976,1690
29233,2968,1686
29244,2990,1694
29256,2886,1692
29268,2919,1695
29280,2961,1698
29292,2940,1696
29304,2981,1698
29315,2960,1699
29327,2946,1697
29339,2977,1690
29351,2989,1693
29363,2967,1699
29375,2940,1699
29386,2957,1697
29398,2974,1687
29410,2995,1688
29422,2980,1689
29434,2969,1693
29446,2963,1688
29457,2994,1694
29469,3006,1696
29481,2952,1690
29493,3028,1699
29505,3035,1698
29517,2994,1700
29528,2955,1698
29540,2978,1698
29552,3000,1700
29564,2996,1698
29576,2987,1701
29588,2978,1698
29599,2974,1693
29611,2998,1699
29623,3019,1694
29635,3014,1697
29647,3028,1701
29659,3006,1702
29670,3025,1695
29682,2980,1693
29694,2980,1687
29706,2995,1690
29718,2996,1696
29730,3006,1695
29741,3019,1695
29753,3011,1697
29765,3012,1691
29777,3012,1694
29789,3017,1697
29801,3021,1692
29812,3013,1694
29824,3022,1690
29836,3039,1691
29848,3036,1693
29860,3030,1694
29872,3032,1696
29883,3025,1692
29895,3013,1691
29907,3042,1692
29919,3050,1692
29931,3017,1697
29943,3019,1694
29954,2993,1689
29966,2961,1691
29978,2941,1681
29990,2949,1680
