timestamp_ms,ppg1,ppg2
0,3171,3055
12,3178,3067
23,3206,3104
35,3202,3142
47,3223,3167
59,3248,3195
71,3227,3225
82,3239,3244
94,3251,3279
106,3252,3293
118,3247,3317
130,3236,3335
141,3237,3363
153,3229,3377
165,3212,3379
177,3219,3389
189,3225,3387
201,3212,3392
212,3209,3366
224,3208,3347
236,3208,3324
248,3201,3318
260,3202,3314
271,3200,3301
283,3204,3299
295,3196,3284
307,3184,3266
319,3192,3258
331,3178,3248
342,3179,3245
354,3182,3241
366,3185,3229
378,3209,3232
390,3199,3226
401,3213,3240
413,3224,3253
425,3219,3258
437,3228,3255
449,3230,3265
461,3217,3275
472,3221,3278
484,3220,3267
496,3233,3261
508,3234,3238
520,3245,3227
531,3250,3216
543,3244,3205
555,3238,3206
567,3226,3218
579,3218,3218
591,3224,3233
602,3224,3238
614,3224,3249
626,3228,3243
638,3235,3258
650,3244,3276
662,3243,3288
673,3267,3299
685,3266,3306
697,3274,3312
709,3288,3321
721,3301,3316
732,3303,3302
744,3293,3285
756,3284,3263
768,3282,3233
780,3274,3211
792,3268,3187
803,3254,3146
815,3236,3122
827,3225,3101
839,3202,3071
851,3191,3047
863,3188,3030
874,3176,3012
886,3179,3007
898,3170,2999
910,3173,3016
922,3169,3038
933,3175,3058
945,3167,3089
957,3157,3120
969,3164,3159
981,3158,3195
993,3180,3242
1004,3188,3279
1016,3195,3319
1028,3213,3354
1040,3234,3385
1052,3266,3407
1063,3273,3419
1075,3289,3441
1087,3308,3458
1099,3328,3465
1111,3332,3460
1123,3336,3441
1134,3329,3435
1146,3304,3415
1158,3274,3370
1170,3257,3339
1182,3236,3314
1193,3219,3293
1205,3199,3280
1217,3186,3254
1229,3170,3224
1241,3157,3204
1253,3178,3190
1264,3177,3180
1276,3176,3182
1288,3173,3183
1300,3159,3173
1312,3164,3182
1324,3176,3195
1335,3192,3211
1347,3191,3223
1359,3203,3238
1371,3221,3265
1383,3225,3282
1394,3240,3292
1406,3245,3280
1418,3252,3278
1430,3248,3272
1442,3253,3260
1454,3244,3253
1465,3241,3250
1477,3243,3242
1489,3259,3238
1501,3260,3228
1513,3256,3223
1525,3239,3216
1536,3252,3225
1548,3257,3234
1560,3257,3235
1572,3251,3242
1584,3251,3246
1595,3255,3235
1607,3262,3222
1619,3265,3203
1631,3260,3193
1643,3267,3194
1655,3273,3203
1666,3278,3198
1678,3279,3205
1690,3274,3201
1702,3265,3205
1714,3253,3210
1725,3235,3208
1737,3246,3208
1749,3255,3199
1761,3256,3185
1773,3251,3181
1785,3244,3179
1796,3243,3190
1808,3268,3217
1820,3268,3232
1832,3281,3255
1844,3287,3272
1856,3294,3279
1867,3310,3309
1879,3333,3335
1891,3346,3374
1903,3342,3399
1915,3351,3414
1926,3352,3431
1938,3346,3455
1950,3361,3487
1962,3362,3524
1974,3363,3549
1986,3362,3562
1997,3345,3593
2009,3327,3589
2021,3302,3588
2033,3294,3576
2045,3282,3555
2057,3270,3526
2068,3261,3497
2080,3238,3475
2092,3231,3451
2104,3227,3430
2116,3216,3397
2127,3217,3379
2139,3226,3366
2151,3236,3358
2163,3232,3355
2175,3240,3365
2187,3229,3355
2198,3225,3350
2210,3231,3346
2222,3224,3338
2234,3224,3336
2246,3221,3343
2258,3225,3332
2269,3235,3317
2281,3222,3297
2293,3222,3284
2305,3231,3270
2317,3216,3266
2328,3218,3257
2340,3201,3247
2352,3178,3257
2364,3178,3260
2376,3182,3260
2388,3183,3267
2399,3197,3276
2411,3190,3280
2423,3192,3284
2435,3192,3294
2447,3211,3303
2459,3215,3294
2470,3225,3294
2482,3225,3290
2494,3218,3274
2506,3236,3274
2518,3235,3262
2530,3236,3254
2541,3230,3254
2553,3226,3257
2565,3215,3248
2577,3215,3244
2589,3212,3245
2600,3205,3229
2612,3199,3230
2624,3207,3216
2636,3194,3192
2648,3189,3175
2660,3181,3166
2671,3191,3140
2683,3181,3139
2695,3172,3134
2707,3151,3134
2719,3155,3149
2731,3148,3171
2742,3146,3182
2754,3136,3199
2766,3160,3216
2778,3185,3229
2790,3206,3248
2802,3210,3267
2813,3224,3288
2825,3219,3306
2837,3231,3332
2849,3226,3366
2861,3241,3389
2873,3255,3414
2884,3268,3420
2896,3249,3414
2908,3247,3403
2920,3228,3407
2932,3222,3404
2944,3219,3403
2955,3231,3404
2967,3243,3394
2979,3250,3383
2991,3262,3355
3003,3263,3348
3014,3274,3346
3026,3267,3326
3038,3259,3322
3050,3238,3309
3062,3224,3301
3074,3212,3289
3085,3219,3281
3097,3199,3271
3109,3195,3259
3121,3198,3243
3133,3191,3231
3145,3190,3207
3156,3188,3193
3168,3199,3203
3180,3193,3217
3192,3206,3250
3204,3210,3273
3216,3214,3285
3227,3222,3311
3239,3237,3317
3251,3246,3318
3263,3261,3330
3275,3256,3317
3287,3245,3306
3298,3253,3282
3310,3248,3268
3322,3252,3246
3334,3247,3229
3346,3262,3214
3357,3250,3211
3369,3245,3200
3381,3248,3188
3393,3241,3174
3405,3239,3188
3417,3225,3195
3428,3217,3209
3440,3210,3226
3452,3207,3228
3464,3198,3243
3476,3204,3248
3488,3219,3243
3499,3224,3237
3511,3230,3225
3523,3239,3221
3535,3249,3204
3547,3250,3171
3559,3229,3151
3570,3233,3147
3582,3215,3140
3594,3210,3132
3606,3211,3138
3618,3217,3151
3630,3230,3160
3641,3246,3186
3653,3263,3212
3665,3280,3245
3677,3298,3281
3689,3304,3318
3700,3315,3368
3712,3321,3410
3724,3334,3454
3736,3352,3480
3748,3346,3515
3760,3350,3540
3771,3351,3547
3783,3344,3543
3795,3346,3547
3807,3325,3532
3819,3320,3515
3831,3324,3508
3842,3328,3492
3854,3330,3483
3866,3318,3474
3878,3322,3468
3890,3322,3458
3902,3320,3450
3913,3322,3446
3925,3331,3451
3937,3319,3437
3949,3297,3428
3961,3283,3392
3973,3272,3385
3984,3263,3379
3996,3282,3389
4008,3282,3388
4020,3294,3382
4032,3296,3389
4044,3284,3381
4055,3284,3390
4067,3281,3391
4079,3283,3378
4091,3281,3376
4103,3270,3378
4114,3279,3362
4126,3278,3360
4138,3280,3366
4150,3283,3370
4162,3294,3361
4174,3294,3361
4185,3300,3344
4197,3301,3334
4209,3308,3324
4221,3303,3325
4233,3294,3318
4245,3283,3315
4256,3268,3305
4268,3243,3301
4280,3242,3286
4292,3244,3265
4304,3255,3270
4316,3275,3277
4327,3283,3270
4339,3287,3272
4351,3291,3283
4363,3291,3263
4375,3293,3268
4387,3295,3273
4398,3316,3268
4410,3307,3277
4422,3309,3283
4434,3305,3302
4446,3282,3305
4458,3268,3326
4469,3234,3323
4481,3229,3343
4493,3231,3366
4505,3222,3406
4517,3231,3440
4528,3248,3494
4540,3260,3539
4552,3279,3578
4564,3293,3627
4576,3312,3675
4588,3339,3712
4599,3358,3737
4611,3366,3756
4623,3368,3746
4635,3362,3745
4647,3352,3728
4659,3336,3684
4670,3332,3646
4682,3312,3610
4694,3298,3572
4706,3275,3540
4718,3253,3509
4730,3265,3497
4741,3273,3465
4753,3286,3448
4765,3304,3436
4777,3296,3427
4789,3281,3412
4800,3273,3416
4812,3263,3411
4824,3270,3403
4836,3266,3405
4848,3248,3394
4860,3242,3400
4871,3233,3408
4883,3243,3420
4895,3256,3423
4907,3266,3423
4919,3258,3420
4931,3266,3422
4942,3279,3424
4954,3279,3416
4966,3287,3404
4978,3290,3390
4990,3292,3398
5002,3277,3400
5013,3265,3387
5025,3254,3378
5037,3248,3372
5049,3246,3377
5061,3264,3379
5073,3274,3367
5084,3283,3352
5096,3281,3330
5108,3290,3309
5120,3290,3288
5132,3290,3270
5144,3287,3260
5155,3279,3237
5167,3275,3237
5179,3263,3225
5191,3263,3217
5203,3246,3212
5214,3227,3219
5226,3208,3222
5238,3188,3227
5250,3186,3226
5262,3182,3222
5274,3202,3234
5285,3214,3255
5297,3240,3276
5309,3264,3306
5321,3271,3340
5333,3284,3383
5345,3288,3443
5356,3314,3503
5368,3331,3574
5380,3320,3636
5392,3324,3685
5404,3324,3733
5416,3314,3765
5427,3322,3791
5439,3328,3801
5451,3348,3802
5463,3362,3808
5475,3371,3810
5487,3372,3788
5498,3366,3760
5510,3348,3714
5522,3317,3671
5534,3289,3628
5546,3260,3577
5558,3234,3531
5569,3211,3485
5581,3189,3447
5593,3180,3420
5605,3192,3404
5617,3222,3384
5628,3238,3357
5640,3256,3348
5652,3252,3321
5664,3248,3328
5676,3270,3334
5688,3285,3345
5699,3299,3358
5711,3298,3359
5723,3280,3355
5735,3275,3353
5747,3261,3357
5759,3252,3339
5770,3228,3335
5782,3229,3340
5794,3245,3336
5806,3244,3339
5818,3258,3358
5830,3263,3376
5841,3273,3404
5853,3273,3414
5865,3296,3428
5877,3313,3434
5889,3313,3422
5900,3321,3421
5912,3335,3423
5924,3326,3414
5936,3333,3402
5948,3342,3397
5960,3344,3382
5971,3329,3378
5983,3306,3378
5995,3276,3361
6007,3226,3351
6019,3205,3330
6031,3188,3327
6042,3184,3302
6054,3185,3289
6066,3202,3293
6078,3227,3297
6090,3233,3314
6102,3253,3326
6113,3286,3339
6125,3305,3366
6137,3315,3404
6149,3322,3444
6161,3350,3500
6173,3354,3571
6184,3365,3623
6196,3369,3692
6208,3373,3757
6220,3375,3823
6232,3348,3882
6243,3347,3923
6255,3334,3942
6267,3349,3945
6279,3347,3939
6291,3345,3935
6303,3365,3910
6314,3362,3900
6326,3357,3886
6338,3358,3864
6350,3362,3874
6362,3377,3865
6374,3378,3854
6385,3398,3845
6397,3421,3842
6409,3427,3811
6421,3434,3795
6433,3404,3754
6445,3381,3722
6456,3363,3692
6468,3346,3679
6480,3339,3657
6492,3329,3649
6504,3321,3638
6516,3322,3632
6527,3312,3626
6539,3319,3633
6551,3322,3627
6563,3331,3614
6575,3321,3589
6587,3313,3552
6598,3317,3521
6610,3340,3516
6622,3331,3499
6634,3326,3478
6646,3317,3462
6657,3301,3440
6669,3288,3415
6681,3282,3404
6693,3269,3379
6705,3252,3353
6717,3239,3346
6728,3247,3336
6740,3282,3318
6752,3294,3318
6764,3311,3315
6776,3315,3300
6788,3311,3294
6799,3309,3282
6811,3299,3272
6823,3296,3261
6835,3281,3251
6847,3270,3240
6859,3264,3226
6870,3250,3227
6882,3226,3236
6894,3230,3242
6906,3242,3249
6918,3258,3257
6930,3276,3290
6941,3286,3322
6953,3293,3355
6965,3303,3401
6977,3309,3452
6989,3331,3509
7001,3352,3575
7012,3368,3627
7024,3379,3665
7036,3378,3691
7048,3373,3708
7060,3371,3716
7071,3359,3691
7083,3351,3667
7095,3334,3630
7107,3325,3598
7119,3310,3556
7131,3307,3514
7142,3307,3469
7154,3302,3425
7166,3296,3391
7178,3285,3350
7190,3274,3331
7202,3261,3305
7213,3258,3290
7225,3255,3254
7237,3245,3235
7249,3237,3206
7261,3238,3207
7273,3242,3205
7284,3253,3204
7296,3252,3205
7308,3258,3214
7320,3251,3215
7332,3251,3225
7343,3246,3248
7355,3258,3248
7367,3260,3246
7379,3252,3235
7391,3233,3228
7403,3229,3228
7414,3217,3215
7426,3209,3213
7438,3220,3204
7450,3230,3186
7462,3239,3178
7474,3245,3177
7485,3248,3156
7497,3245,3144
7509,3245,3147
7521,3226,3136
7533,3215,3133
7545,3212,3136
7556,3211,3129
7568,3206,3122
7580,3197,3122
7592,3186,3117
7604,3186,3093
7616,3200,3083
7627,3212,3077
7639,3215,3068
7651,3203,3061
7663,3186,3056
7675,3174,3052
7686,3149,3047
7698,3131,3052
7710,3122,3057
7722,3115,3062
7734,3115,3050
7746,3132,3075
7757,3153,3095
7769,3182,3116
7781,3214,3145
7793,3230,3176
7805,3249,3227
7817,3271,3286
7828,3295,3332
7840,3314,3395
7852,3327,3454
7864,3346,3505
7876,3350,3538
7888,3372,3561
7899,3373,3566
7911,3375,3559
7923,3384,3552
7935,3368,3534
7947,3381,3514
7959,3378,3483
7970,3385,3448
7982,3388,3417
7994,3375,3380
8006,3371,3356
8018,3351,3333
8030,3345,3306
8041,3330,3292
8053,3317,3287
8065,3288,3281
8077,3265,3286
8089,3271,3284
8100,3275,3280
8112,3286,3296
8124,3298,3309
8136,3304,3307
8148,3309,3316
8160,3292,3306
8171,3294,3303
8183,3290,3311
8195,3288,3307
8207,3303,3307
8219,3299,3278
8231,3283,3266
8242,3268,3244
8254,3253,3231
8266,3227,3210
8278,3221,3211
8290,3231,3196
8301,3242,3194
8313,3245,3180
8325,3270,3176
8337,3280,3173
8349,3295,3174
8361,3289,3170
8372,3287,3176
8384,3270,3177
8396,3252,3161
8408,3259,3161
8420,3245,3148
8432,3257,3140
8443,3248,3129
8455,3244,3119
8467,3252,3095
8479,3257,3089
8491,3241,3088
8503,3232,3089
8514,3237,3083
8526,3243,3097
8538,3242,3108
8550,3241,3111
8562,3230,3100
8574,3220,3095
8585,3217,3110
8597,3209,3100
8609,3184,3107
8621,3182,3106
8633,3171,3099
8644,3186,3106
8656,3192,3103
8668,3194,3115
8680,3220,3147
8692,3232,3160
8704,3266,3188
8715,3274,3223
8727,3304,3254
8739,3317,3298
8751,3320,3337
8763,3334,3396
8775,3358,3438
8786,3385,3491
8798,3410,3522
8810,3424,3539
8822,3440,3556
8834,3448,3552
8846,3444,3543
8857,3426,3503
8869,3410,3486
8881,3408,3447
8893,3406,3396
8905,3404,3375
8917,3398,3345
8928,3362,3322
8940,3333,3297
8952,3325,3276
8964,3312,3269
8976,3309,3252
8987,3309,3236
8999,3319,3219
9011,3326,3207
9023,3324,3202
9035,3342,3199
9047,3330,3189
9058,3345,3183
9070,3351,3210
9082,3329,3213
9094,3319,3222
9106,3293,3214
9118,3291,3213
9129,3282,3216
9141,3272,3206
9153,3282,3198
9165,3285,3184
9177,3286,3155
9189,3266,3136
9200,3269,3137
9212,3264,3143
9224,3264,3141
9236,3260,3136
9248,3259,3147
9259,3264,3140
9271,3272,3144
9283,3276,3139
9295,3270,3138
9307,3271,3130
9319,3260,3133
9330,3234,3114
9342,3200,3101
9354,3188,3091
9366,3184,3091
9378,3171,3075
9390,3178,3088
9401,3202,3090
9413,3221,3097
9425,3240,3094
9437,3248,3082
9449,3259,3078
9460,3279,3069
9472,3288,3069
9484,3288,3072
9496,3284,3061
9508,3261,3061
9520,3231,3061
9531,3210,3065
9543,3188,3078
9555,3179,3082
9567,3156,3100
9579,3143,3107
9591,3151,3109
9602,3158,3115
9614,3170,3131
9626,3194,3147
9638,3213,3179
9650,3240,3206
9662,3270,3236
9673,3295,3283
9685,3319,3318
9697,3362,3352
9709,3392,3381
9721,3423,3402
9733,3450,3415
9744,3446,3421
9756,3431,3416
9768,3416,3410
9780,3391,3381
9792,3383,3357
9803,3387,3336
9815,3396,3314
9827,3397,3302
9839,3391,3286
9851,3382,3267
9863,3374,3250
9874,3358,3234
9886,3351,3218
9898,3343,3204
9910,3333,3201
9922,3316,3199
9934,3302,3198
9945,3281,3197
9957,3270,3189
9969,3288,3205
9981,3296,3211
9993,3281,3200
10005,3276,3197
10016,3271,3175
10028,3280,3184
10040,3280,3184
10052,3282,3188
10064,3280,3189
10076,3297,3195
10087,3308,3201
10099,3316,3193
10111,3316,3193
10123,3311,3186
10135,3292,3186
10147,3268,3178
10158,3247,3168
10170,3229,3162
10182,3216,3141
10194,3216,3139
10206,3232,3112
10217,3237,3105
10229,3249,3099
10241,3271,3104
10253,3282,3118
10265,3299,3135
10277,3306,3138
10288,3313,3143
10300,3324,3146
10312,3313,3146
10324,3299,3129
10336,3279,3118
10348,3275,3110
10359,3264,3100
10371,3256,3098
10383,3242,3093
10395,3230,3073
10407,3232,3079
10419,3224,3066
10430,3230,3064
10442,3227,3065
10454,3209,3066
10466,3215,3072
10478,3225,3072
10490,3249,3080
10501,3262,3100
10513,3273,3115
10525,3287,3124
10537,3297,3153
10549,3320,3169
10561,3348,3191
10572,3375,3210
10584,3386,3233
10596,3414,3252
10608,3438,3275
10620,3463,3291
10631,3469,3297
10643,3484,3310
10655,3480,3285
10667,3464,3276
10679,3451,3264
10691,3430,3254
10702,3417,3234
10714,3407,3217
10726,3405,3200
10738,3400,3197
10750,3397,3185
10762,3359,3171
10773,3338,3152
10785,3319,3133
10797,3306,3134
10809,3293,3135
10821,3283,3133
10833,3293,3145
10844,3299,3157
10856,3306,3158
10868,3316,3162
10880,3317,3160
10892,3320,3156
10904,3318,3146
10915,3307,3157
10927,3305,3156
10939,3285,3142
10951,3290,3137
10963,3276,3130
10975,3271,3124
10986,3278,3123
10998,3269,3127
11010,3259,3121
11022,3268,3128
11034,3279,3114
11046,3285,3101
11057,3275,3107
11069,3260,3102
11081,3270,3100
11093,3259,3107
11105,3269,3111
11116,3263,3116
11128,3247,3107
11140,3235,3102
11152,3228,3086
11164,3228,3079
11176,3220,3073
11187,3215,3054
11199,3229,3071
11211,3237,3082
11223,3239,3086
11235,3235,3083
11247,3241,3093
11258,3226,3087
11270,3215,3100
11282,3232,3092
11294,3238,3099
11306,3236,3089
11318,3239,3098
11329,3241,3114
11341,3231,3114
11353,3232,3113
11365,3233,3113
11377,3229,3105
11389,3222,3104
11400,3215,3118
11412,3226,3134
11424,3221,3150
11436,3229,3185
11448,3243,3190
11460,3254,3211
11471,3286,3239
11483,3329,3274
11495,3367,3298
11507,3428,3341
11519,3462,3356
11531,3489,3379
11542,3511,3387
11554,3523,3377
11566,3524,3379
11578,3514,3356
11590,3479,3338
11602,3448,3308
11613,3425,3288
11625,3408,3286
11637,3391,3261
11649,3371,3243
11661,3358,3227
11673,3328,3212
11684,3309,3200
11696,3293,3198
11708,3307,3208
11720,3322,3207
11732,3334,3209
11744,3345,3220
11755,3344,3228
11767,3348,3229
11779,3327,3227
11791,3318,3220
11803,3309,3209
11815,3285,3211
11826,3277,3224
11838,3274,3223
11850,3258,3220
11862,3255,3229
11874,3248,3211
11886,3240,3214
11897,3233,3229
11909,3248,3236
11921,3261,3239
11933,3273,3243
11945,3269,3249
11957,3271,3252
11968,3282,3240
11980,3276,3235
11992,3278,3218
12004,3284,3202
12016,3285,3181
12027,3294,3164
12039,3297,3155
12051,3285,3147
12063,3275,3153
12075,3267,3145
12087,3255,3164
12098,3247,3149
12110,3247,3142
12122,3267,3130
12134,3250,3125
12146,3240,3118
12158,3229,3113
12169,3236,3108
12181,3227,3119
12193,3207,3105
12205,3198,3109
12217,3194,3101
12229,3174,3093
12240,3169,3082
12252,3153,3069
12264,3146,3076
12276,3120,3081
12288,3105,3083
12300,3111,3089
12311,3116,3097
12323,3131,3105
12335,3144,3134
12347,3166,3161
12359,3181,3187
12371,3196,3209
12382,3194,3251
12394,3219,3270
12406,3256,3304
12418,3294,3321
12430,3341,3357
12442,3392,3382
12453,3431,3397
12465,3452,3400
12477,3458,3376
12489,3443,3371
12501,3408,3361
12513,3386,3344
12524,3373,3339
12536,3376,3331
12548,3388,3302
12560,3405,3289
12572,3416,3266
12583,3403,3264
12595,3369,3241
12607,3341,3222
12619,3312,3209
12631,3292,3196
12643,3279,3188
12654,3260,3178
12666,3249,3185
12678,3257,3188
12690,3255,3189
12702,3252,3205
12714,3245,3192
12725,3244,3195
12737,3229,3182
12749,3228,3173
12761,3214,3172
12773,3206,3173
12785,3209,3182
12796,3222,3189
12808,3225,3210
12820,3264,3216
12832,3268,3233
12844,3254,3226
12856,3261,3233
12867,3257,3231
12879,3247,3234
12891,3232,3228
12903,3223,3237
12915,3206,3226
12927,3189,3200
12938,3177,3170
12950,3180,3149
12962,3185,3140
12974,3196,3142
12986,3201,3136
12998,3215,3146
13009,3219,3153
13021,3224,3156
13033,3219,3159
13045,3220,3158
13057,3218,3153
13068,3222,3165
13080,3233,3163
13092,3219,3151
13104,3193,3155
13116,3163,3150
13128,3149,3131
13139,3141,3122
13151,3147,3117
13163,3138,3111
13175,3124,3103
13187,3120,3115
13199,3117,3104
13210,3129,3114
13222,3133,3115
13234,3148,3127
13246,3170,3149
13258,3204,3165
13270,3254,3184
13281,3304,3217
13293,3347,3233
13305,3399,3266
13317,3440,3304
13329,3460,3340
13341,3492,3381
13352,3528,3397
13364,3546,3409
13376,3549,3417
13388,3527,3415
13400,3497,3405
13412,3475,3379
13423,3448,3368
13435,3417,3353
13447,3384,3329
13459,3343,3320
13471,3313,3306
13483,3269,3297
13494,3237,3288
13506,3221,3280
13518,3213,3269
13530,3211,3260
13542,3207,3254
13554,3204,3230
13565,3213,3223
13577,3218,3214
13589,3223,3210
13601,3229,3205
13613,3235,3210
13624,3225,3228
13636,3211,3219
13648,3182,3221
13660,3173,3226
13672,3164,3235
13684,3156,3242
13695,3159,3251
13707,3160,3245
13719,3152,3238
13731,3158,3227
13743,3151,3212
13755,3155,3201
13766,3153,3188
13778,3149,3178
13790,3135,3175
13802,3119,3163
13814,3102,3157
13826,3100,3158
13837,3109,3157
13849,3116,3155
13861,3112,3157
13873,3118,3157
13885,3131,3177
13897,3139,3169
13908,3168,3184
13920,3185,3178
13932,3213,3180
13944,3223,3174
13956,3236,3185
13968,3239,3191
13979,3223,3190
13991,3210,3188
14003,3185,3191
14015,3201,3179
14027,3202,3169
14039,3197,3153
14050,3185,3148
14062,3181,3141
14074,3169,3135
14086,3163,3136
14098,3172,3146
14110,3190,3160
14121,3228,3173
14133,3248,3194
14145,3265,3225
14157,3302,3252
14169,3333,3289
14180,3359,3316
14192,3375,3360
14204,3408,3381
14216,3419,3404
14228,3439,3419
14240,3449,3438
14251,3440,3441
14263,3440,3439
14275,3429,3438
14287,3418,3428
14299,3395,3394
14311,3376,3372
14322,3344,3331
14334,3305,3302
14346,3271,3262
14358,3238,3241
14370,3201,3220
14382,3179,3205
14393,3148,3190
14405,3139,3179
14417,3129,3181
14429,3145,3182
14441,3168,3197
14453,3184,3218
14464,3215,3238
14476,3242,3247
14488,3249,3265
14500,3250,3273
14512,3263,3287
14524,3258,3282
14535,3260,3266
14547,3259,3257
14559,3253,3245
14571,3229,3238
14583,3198,3222
14595,3168,3215
14606,3156,3203
14618,3157,3209
14630,3161,3199
14642,3148,3202
14654,3151,3208
14666,3161,3214
14677,3165,3197
14689,3156,3206
14701,3157,3206
14713,3161,3203
14725,3154,3189
14737,3142,3190
14748,3123,3185
14760,3115,3182
14772,3099,3194
14784,3102,3197
14796,3111,3183
14808,3115,3183
14819,3122,3187
14831,3128,3193
14843,3126,3195
14855,3120,3194
14867,3124,3191
14879,3141,3203
14890,3137,3202
14902,3129,3197
14914,3144,3209
14926,3155,3201
14938,3163,3201
14949,3153,3198
14961,3149,3184
14973,3144,3182
14985,3138,3178
14997,3136,3180
15009,3127,3176
15020,3130,3176
15032,3132,3205
15044,3140,3231
15056,3157,3265
15068,3193,3276
15080,3220,3309
15091,3241,3355
15103,3257,3391
15115,3296,3432
15127,3344,3458
15139,3383,3484
15151,3403,3507
15162,3405,3537
15174,3410,3548
15186,3395,3546
15198,3399,3558
15210,3384,3552
15222,3364,3543
15233,3348,3528
15245,3330,3510
15257,3296,3483
15269,3262,3480
15281,3224,3453
15293,3211,3443
15304,3180,3439
15316,3158,3419
15328,3138,3399
15340,3136,3371
15352,3145,3359
15364,3136,3341
15375,3152,3325
15387,3184,3319
15399,3213,3317
15411,3220,3327
15423,3240,3331
15435,3232,3316
15446,3243,3320
15458,3250,3324
15470,3244,3303
15482,3239,3322
15494,3233,3329
15505,3224,3319
15517,3216,3318
15529,3205,3315
15541,3199,3290
15553,3205,3294
15565,3198,3296
15576,3184,3311
15588,3172,3311
15600,3158,3312
15612,3151,3305
15624,3146,3310
15636,3133,3311
15647,3147,3312
15659,3154,3315
15671,3159,3304
15683,3182,3284
15695,3193,3275
15707,3206,3266
15718,3220,3263
15730,3220,3250
15742,3221,3245
15754,3214,3218
15766,3216,3215
15778,3207,3206
15789,3188,3198
15801,3175,3199
15813,3167,3187
15825,3153,3173
15837,3154,3179
15849,3147,3185
15860,3139,3189
15872,3130,3193
15884,3144,3202
15896,3157,3204
15908,3172,3209
15920,3176,3224
15931,3192,3259
15943,3197,3280
15955,3213,3302
15967,3215,3340
15979,3225,3380
15991,3238,3419
16002,3243,3466
16014,3256,3518
16026,3274,3578
16038,3273,3600
16050,3292,3652
16062,3300,3673
16073,3301,3695
16085,3305,3721
16097,3287,3714
16109,3289,3721
16121,3301,3701
16133,3323,3689
16144,3312,3644
16156,3287,3614
16168,3268,3577
16180,3226,3553
16192,3195,3516
16204,3184,3465
16215,3186,3440
16227,3203,3410
16239,3216,3403
16251,3219,3378
16263,3216,3365
16275,3209,3360
16286,3199,3357
16298,3203,3350
16310,3205,3358
16322,3201,3361
16334,3197,3365
16346,3192,3369
16357,3192,3363
16369,3179,3366
16381,3164,3364
16393,3177,3370
16405,3185,3380
16416,3190,3371
16428,3200,3368
16440,3202,3360
16452,3207,3353
16464,3208,3340
16476,3198,3333
16487,3183,3318
16499,3181,3314
16511,3180,3302
16523,3177,3300
16535,3170,3294
16547,3171,3292
16558,3165,3287
16570,3144,3275
16582,3133,3253
16594,3135,3251
16606,3139,3229
16618,3150,3215
16629,3165,3210
16641,3156,3194
16653,3146,3194
16665,3150,3179
16677,3131,3177
16689,3123,3178
16700,3112,3181
16712,3124,3185
16724,3137,3197
16736,3136,3201
16748,3139,3198
16760,3141,3191
16771,3139,3174
16783,3124,3170
16795,3114,3168
16807,3113,3167
16819,3110,3182
16831,3121,3201
16842,3142,3235
16854,3163,3283
16866,3185,3345
16878,3210,3395
16890,3235,3454
16902,3252,3529
16913,3275,3593
16925,3305,3660
16937,3326,3708
16949,3343,3772
16961,3327,3810
16973,3325,3849
16984,3325,3868
16996,3314,3857
17008,3308,3844
17020,3306,3804
17032,3285,3769
17044,3280,3723
17055,3265,3669
17067,3255,3620
17079,3228,3578
17091,3218,3545
17103,3222,3515
17115,3228,3480
17126,3249,3443
17138,3239,3398
17150,3246,3358
17162,3248,3333
17174,3253,3321
17186,3256,3316
17197,3248,3322
17209,3247,3333
17221,3244,3351
17233,3242,3359
17245,3235,3356
17257,3225,3376
17268,3217,3382
17280,3200,3377
17292,3188,3387
17304,3175,3383
17316,3162,3378
17328,3149,3370
17339,3160,3363
17351,3174,3358
17363,3185,3342
17375,3193,3324
17387,3208,3313
17399,3214,3304
17410,3228,3288
17422,3227,3293
17434,3227,3281
17446,3215,3280
17458,3205,3268
17470,3196,3244
17481,3211,3238
17493,3220,3224
17505,3223,3215
17517,3239,3196
17529,3243,3189
17541,3240,3184
17552,3224,3179
17564,3197,3172
17576,3193,3175
17588,3182,3164
17600,3171,3184
17611,3162,3181
17623,3149,3183
17635,3124,3173
17647,3108,3173
17659,3111,3178
17671,3106,3169
17682,3120,3169
17694,3129,3185
17706,3143,3200
17718,3173,3223
17730,3192,3232
17742,3222,3272
17753,3257,3320
17765,3284,3381
17777,3306,3448
17789,3310,3514
17801,3326,3606
17813,3328,3676
17824,3326,3728
17836,3319,3765
17848,3326,3783
17860,3338,3787
17872,3335,3771
17884,3327,3736
17895,3318,3717
17907,3322,3678
17919,3304,3655
17931,3277,3617
17943,3251,3592
17955,3229,3548
17966,3211,3506
17978,3207,3476
17990,3192,3446
18002,3189,3403
18014,3196,3373
18026,3188,3346
18037,3177,3327
18049,3179,3306
18061,3178,3284
18073,3166,3266
18085,3173,3268
18097,3180,3259
18108,3187,3263
18120,3210,3270
18132,3220,3282
18144,3243,3278
18156,3260,3291
18168,3244,3287
18179,3246,3292
18191,3230,3302
18203,3219,3292
18215,3197,3287
18227,3194,3284
18239,3185,3279
18250,3172,3252
18262,3153,3248
18274,3145,3224
18286,3164,3217
18298,3185,3202
18310,3195,3189
18321,3205,3179
18333,3210,3177
18345,3197,3156
18357,3183,3155
18369,3166,3169
18381,3156,3155
18392,3155,3144
18404,3156,3141
18416,3129,3137
18428,3129,3124
18440,3125,3119
18452,3125,3113
18463,3131,3110
18475,3130,3114
18487,3136,3117
18499,3142,3121
18511,3153,3125
18522,3149,3123
18534,3147,3135
18546,3161,3141
18558,3164,3146
18570,3186,3152
18582,3199,3150
18593,3201,3171
18605,3201,3192
18617,3207,3215
18629,3204,3252
18641,3230,3326
18653,3260,3392
18664,3283,3467
18676,3313,3520
18688,3346,3572
18700,3368,3624
18712,3365,3668
18724,3353,3696
18735,3347,3710
18747,3326,3716
18759,3299,3689
18771,3275,3676
18783,3261,3645
18795,3253,3604
18806,3252,3582
18818,3243,3543
18830,3221,3496
18842,3210,3461
18854,3215,3423
18866,3207,3396
18877,3221,3371
18889,3228,3335
18901,3236,3322
18913,3230,3298
18925,3220,3287
18937,3202,3282
18948,3194,3271
18960,3191,3283
18972,3191,3286
18984,3199,3277
18996,3215,3296
19008,3223,3278
19019,3215,3275
19031,3205,3272
19043,3192,3268
19055,3183,3271
19067,3174,3283
19079,3179,3283
19090,3197,3278
19102,3199,3264
19114,3211,3256
19126,3225,3239
19138,3223,3229
19150,3218,3213
19161,3195,3194
19173,3183,3181
19185,3174,3154
19197,3174,3143
19209,3171,3134
19221,3172,3129
19232,3160,3118
19244,3159,3121
19256,3168,3109
19268,3190,3115
19280,3187,3127
19292,3173,3136
19303,3158,3145
19315,3164,3144
19327,3169,3126
19339,3178,3116
19351,3178,3094
19363,3184,3078
19374,3210,3078
19386,3205,3075
19398,3215,3075
19410,3225,3081
19422,3225,3086
19433,3215,3090
19445,3215,3103
19457,3214,3118
19469,3225,3151
19481,3235,3182
19493,3215,3208
19504,3205,3242
19516,3223,3287
19528,3243,3332
19540,3263,3386
19552,3290,3457
19564,3294,3518
19575,3305,3574
19587,3305,3622
19599,3309,3646
19611,3334,3661
19623,3350,3641
19635,3354,3617
19646,3328,3592
19658,3330,3555
19670,3328,3516
19682,3308,3465
19694,3287,3433
19706,3268,3402
19717,3233,3360
19729,3222,3347
19741,3216,3317
19753,3213,3302
19765,3220,3299
19777,3225,3290
19788,3218,3281
19800,3224,3267
19812,3212,3260
19824,3223,3252
19836,3231,3244
19848,3222,3237
19860,3226,3238
19871,3220,3249
19883,3230,3260
19895,3227,3278
19907,3202,3294
19919,3193,3300
19930,3194,3302
19942,3194,3296
19954,3204,3271
19966,3214,3255
19978,3224,3229
19990,3217,3226
20001,3216,3219
20013,3211,3214
20025,3205,3223
20037,3186,3232
20049,3177,3222
20061,3169,3215
20072,3169,3203
20084,3170,3192
20096,3182,3185
20108,3192,3187
20120,3196,3172
20132,3200,3174
20143,3207,3170
20155,3197,3162
20167,3182,3155
20179,3184,3134
20191,3181,3121
20203,3179,3109
20214,3171,3089
20226,3164,3087
20238,3163,3088
20250,3154,3081
20262,3157,3075
20274,3162,3079
20285,3172,3082
20297,3175,3084
20309,3169,3088
20321,3174,3109
20333,3181,3125
20345,3199,3140
20356,3210,3172
20368,3233,3223
20380,3250,3262
20392,3257,3308
20404,3267,3363
20416,3267,3417
20427,3283,3463
20439,3287,3520
20451,3288,3565
20463,3288,3593
20475,3274,3596
20487,3277,3604
20498,3262,3595
20510,3238,3579
20522,3230,3546
20534,3211,3509
20546,3206,3467
20558,3214,3428
20569,3226,3391
20581,3237,3366
20593,3239,3330
20605,3257,3310
20617,3275,3284
20629,3279,3273
20640,3286,3256
20652,3303,3253
20664,3303,3251
20676,3304,3249
20688,3303,3250
20700,3297,3250
20711,3295,3241
20723,3295,3249
20735,3277,3256
20747,3259,3257
20759,3259,3250
20771,3240,3254
20782,3223,3259
20794,3226,3251
20806,3230,3244
20818,3221,3224
20830,3221,3216
20842,3220,3195
20853,3230,3192
20865,3226,3182
20877,3228,3185
20889,3217,3174
20901,3215,3180
20913,3227,3179
20924,3243,3179
20936,3248,3167
20948,3248,3157
20960,3249,3158
20972,3242,3152
20984,3225,3128
20995,3217,3127
21007,3200,3123
21019,3194,3114
21031,3208,3118
21043,3213,3116
21055,3224,3120
21066,3241,3119
21078,3250,3118
21090,3236,3118
21102,3218,3129
21114,3216,3137
21126,3222,3149
21137,3224,3156
21149,3227,3159
21161,3239,3159
21173,3265,3181
21185,3290,3203
21197,3302,3238
21208,3323,3287
21220,3329,3342
21232,3324,3393
21244,3318,3433
21256,3318,3482
21268,3320,3514
21279,3322,3545
21291,3318,3568
21303,3320,3576
21315,3322,3562
21327,3332,3547
21339,3332,3518
21350,3354,3487
21362,3368,3466
21374,3372,3436
21386,3377,3401
21398,3367,3372
21410,3357,3339
21421,3352,3312
21433,3327,3280
21445,3310,3269
21457,3301,3251
21469,3283,3226
21481,3261,3209
21492,3262,3186
21504,3260,3180
21516,3243,3179
21528,3240,3167
21540,3241,3185
21552,3236,3198
21563,3223,3214
21575,3233,3228
21587,3237,3252
21599,3247,3263
21611,3258,3258
21623,3255,3262
21634,3255,3252
21646,3253,3250
21658,3254,3251
21670,3265,3252
21682,3267,3237
21693,3279,3219
21705,3271,3214
21717,3276,3207
21729,3260,3205
21741,3263,3198
21753,3266,3204
21764,3280,3203
21776,3280,3200
21788,3287,3182
21800,3287,3198
21812,3289,3192
21824,3298,3188
21835,3303,3167
21847,3288,3145
21859,3284,3132
21871,3274,3110
21883,3265,3098
21895,3232,3086
21906,3210,3075
21918,3192,3075
21930,3173,3070
21942,3174,3076
21954,3183,3099
21966,3198,3118
21977,3207,3161
21989,3232,3211
22001,3253,3254
22013,3266,3302
22025,3281,3357
22037,3299,3410
22048,3323,3452
22060,3321,3506
22072,3341,3555
22084,3361,3579
22096,3378,3591
22108,3379,3580
22119,3393,3572
22131,3385,3562
22143,3371,3554
22155,3363,3539
22167,3355,3513
22179,3349,3493
22191,3338,3448
22202,3350,3417
22214,3348,3383
22226,3339,3351
22238,3321,3323
22250,3309,3310
22262,3314,3271
22273,3324,3266
22285,3321,3245
22297,3319,3234
22309,3321,3225
22321,3299,3219
22333,3281,3203
22344,3260,3195
22356,3251,3205
22368,3252,3219
22380,3229,3220
22392,3219,3219
22403,3215,3223
22415,3226,3229
22427,3250,3237
22439,3261,3244
22451,3287,3252
22463,3295,3251
22474,3297,3245
22486,3317,3247
22498,3310,3236
22510,3300,3231
22522,3289,3214
22534,3278,3202
22545,3274,3193
22557,3277,3191
22569,3278,3187
22581,3300,3180
22593,3308,3175
22605,3300,3174
22617,3290,3172
22628,3281,3171
22640,3276,3171
22652,3268,3174
22664,3252,3171
22676,3231,3160
22688,3221,3161
22699,3225,3141
22711,3227,3133
22723,3237,3128
22735,3237,3123
22747,3227,3125
22759,3209,3119
22770,3201,3139
22782,3206,3172
22794,3215,3188
22806,3240,3228
22818,3273,3266
22830,3290,3308
22841,3318,3352
22853,3350,3405
22865,3362,3446
22877,3359,3489
22889,3382,3524
22900,3383,3545
22912,3393,3563
22924,3398,3560
22936,3389,3549
22948,3378,3530
22960,3371,3517
22971,3363,3497
22983,3365,3470
22995,3361,3450
23007,3358,3425
23019,3337,3388
23031,3336,3362
23042,3333,3337
23054,3329,3322
23066,3326,3319
23078,3308,3294
23090,3294,3282
23102,3292,3267
23114,3273,3253
23125,3257,3242
23137,3252,3235
23149,3248,3222
23161,3246,3207
23173,3242,3206
23185,3244,3205
23196,3245,3210
23208,3263,3227
23220,3265,3236
23232,3281,3230
23244,3272,3234
23255,3270,3227
23267,3275,3233
23279,3279,3243
23291,3273,3245
23303,3286,3251
23315,3287,3241
23326,3275,3248
23338,3275,3235
23350,3280,3230
23362,3280,3215
23374,3282,3211
23386,3290,3203
23397,3282,3197
23409,3258,3190
23421,3249,3178
23433,3237,3168
23445,3240,3164
23457,3240,3164
23468,3240,3158
23480,3242,3150
23492,3247,3147
23504,3246,3131
23516,3243,3124
23528,3241,3116
23539,3233,3117
23551,3218,3099
23563,3222,3085
23575,3216,3087
23587,3218,3083
23599,3215,3101
23611,3211,3119
23622,3214,3147
23634,3232,3178
23646,3245,3195
23658,3244,3223
23670,3256,3254
23681,3280,3282
23693,3302,3335
23705,3319,3383
23717,3344,3433
23729,3361,3469
23741,3401,3505
23752,3424,3532
23764,3449,3538
23776,3462,3546
23788,3475,3537
23800,3476,3517
23812,3475,3492
23823,3460,3453
23835,3464,3432
23847,3450,3405
23859,3434,3363
23871,3412,3328
23883,3387,3292
23894,3389,3273
23906,3358,3263
23918,3343,3251
23930,3327,3227
23942,3302,3213
23954,3300,3214
23965,3287,3206
23977,3279,3196
23989,3279,3202
24001,3282,3207
24013,3301,3214
24025,3316,3206
24037,3323,3205
24048,3332,3207
24060,3342,3200
24072,3323,3196
24084,3319,3194
24096,3324,3189
24108,3323,3182
24119,3328,3172
24131,3326,3172
24143,3315,3173
24155,3314,3186
24167,3321,3181
24179,3315,3171
24190,3298,3157
24202,3284,3147
24214,3289,3132
24226,3281,3122
24238,3278,3112
24250,3275,3107
24261,3275,3091
24273,3272,3094
24285,3280,3101
24297,3289,3105
24309,3285,3091
24321,3287,3084
24332,3283,3078
24344,3283,3081
24356,3282,3092
24368,3280,3099
24380,3272,3113
24392,3252,3103
24403,3235,3109
24415,3209,3095
24427,3200,3106
24439,3195,3106
24451,3184,3113
24463,3183,3112
24474,3195,3118
24486,3209,3142
24498,3232,3161
24510,3259,3189
24522,3286,3231
24534,3305,3281
24545,3351,3341
24557,3386,3388
24569,3429,3428
24581,3469,3469
24593,3500,3490
24605,3535,3488
24616,3537,3487
24628,3527,3481
24640,3528,3451
24652,3532,3420
24664,3511,3399
24676,3481,3364
24687,3463,3331
24699,3447,3298
24711,3433,3287
24723,3405,3266
24735,3367,3243
24747,3330,3228
24758,3319,3221
24770,3322,3214
24782,3323,3213
24794,3317,3203
24806,3325,3177
24818,3319,3162
24829,3325,3165
24841,3327,3157
24853,3322,3157
24865,3328,3157
24877,3330,3167
24889,3340,3174
24900,3327,3184
24912,3316,3192
24924,3318,3182
24936,3336,3182
24948,3323,3170
24960,3318,3159
24971,3326,3161
24983,3320,3159
24995,3313,3152
25007,3320,3148
25019,3315,3140
25030,3309,3127
25042,3307,3125
25054,3286,3089
25066,3265,3089
25078,3232,3082
25090,3213,3082
25101,3206,3085
25113,3201,3080
25125,3186,3071
25137,3175,3088
25149,3175,3086
25161,3183,3073
25172,3200,3064
25184,3218,3074
25196,3238,3069
25208,3238,3071
25220,3247,3078
25232,3245,3078
25244,3249,3082
25255,3251,3084
25267,3253,3078
25279,3251,3088
25291,3246,3084
25303,3233,3081
25315,3223,3093
25326,3201,3094
25338,3187,3107
25350,3186,3116
25362,3183,3152
25374,3226,3181
25386,3254,3208
25397,3290,3244
25409,3345,3278
25421,3384,3323
25433,3423,3375
25445,3449,3428
25457,3473,3471
25468,3499,3501
25480,3514,3511
25492,3511,3510
25504,3517,3503
25516,3525,3478
25527,3525,3438
25539,3522,3413
25551,3502,3380
25563,3501,3361
25575,3480,3324
25587,3460,3308
25598,3459,3295
25610,3433,3278
25622,3418,3259
25634,3390,3242
25646,3359,3219
25658,3324,3213
25669,3315,3219
25681,3305,3206
25693,3300,3182
25705,3286,3187
25717,3271,3183
25729,3269,3180
25741,3273,3179
25752,3284,3169
25764,3312,3165
25776,3322,3159
25788,3306,3155
25800,3294,3168
25812,3289,3176
25823,3277,3183
25835,3272,3180
25847,3276,3191
25859,3273,3191
25871,3281,3182
25883,3291,3188
25894,3289,3178
25906,3275,3161
25918,3269,3157
25930,3254,3143
25942,3258,3136
25954,3236,3119
25965,3245,3119
25977,3237,3117
25989,3222,3111
26001,3231,3108
26013,3222,3111
26025,3206,3102
26036,3189,3089
26048,3174,3080
26060,3163,3070
26072,3149,3081
26084,3135,3072
26096,3131,3072
26107,3128,3083
26119,3117,3093
26131,3118,3096
26143,3113,3100
26155,3098,3093
26167,3098,3088
26178,3097,3079
26190,3106,3073
26202,3117,3067
26214,3121,3082
26226,3131,3097
26238,3135,3101
26249,3163,3122
26261,3177,3141
26273,3208,3157
26285,3224,3183
26297,3264,3214
26309,3289,3251
26320,3313,3312
26332,3331,3356
26344,3360,3403
26356,3386,3440
26368,3407,3452
26380,3434,3481
26392,3422,3481
26403,3418,3478
26415,3419,3471
26427,3425,3459
26439,3437,3450
26451,3440,3418
26463,3440,3399
26474,3444,3373
26486,3416,3354
26498,3405,3328
26510,3374,3307
26522,3359,3278
26534,3338,3243
26545,3322,3223
26557,3300,3199
26569,3285,3183
26581,3283,3186
26593,3277,3200
26605,3281,3207
26616,3269,3206
26628,3277,3205
26640,3280,3207
26652,3284,3220
26664,3259,3220
26676,3245,3232
26687,3242,3226
26699,3232,3204
26711,3239,3189
26723,3233,3180
26735,3241,3165
26747,3238,3168
26758,3244,3148
26770,3250,3138
26782,3246,3147
26794,3236,3156
26806,3223,3164
26818,3216,3163
26830,3201,3152
26841,3193,3162
26853,3183,3163
26865,3202,3170
26877,3222,3170
26889,3225,3163
26901,3235,3150
26912,3244,3138
26924,3242,3135
26936,3233,3135
26948,3222,3137
26960,3217,3134
26972,3212,3134
26983,3209,3131
26995,3188,3123
27007,3177,3117
27019,3181,3109
27031,3180,3103
27043,3181,3109
27054,3164,3119
27066,3150,3117
27078,3141,3115
27090,3131,3122
27102,3135,3122
27114,3149,3133
27125,3167,3133
27137,3193,3148
27149,3219,3182
27161,3260,3207
27173,3308,3248
27185,3367,3298
27196,3413,3330
27208,3447,3386
27220,3470,3428
27232,3488,3459
27244,3494,3476
27256,3491,3509
27268,3486,3509
27279,3480,3500
27291,3460,3476
27303,3450,3449
27315,3436,3443
27327,3425,3404
27339,3393,3376
27350,3381,3360
27362,3371,3327
27374,3365,3297
27386,3335,3273
27398,3312,3264
27410,3288,3247
27421,3268,3246
27433,3267,3237
27445,3243,3225
27457,3225,3218
27469,3225,3214
27481,3212,3211
27492,3213,3198
27504,3229,3198
27516,3231,3199
27528,3237,3173
27540,3240,3165
27552,3236,3163
27563,3229,3168
27575,3234,3175
27587,3249,3180
27599,3260,3189
27611,3272,3188
27623,3252,3174
27634,3240,3160
27646,3218,3154
27658,3196,3142
27670,3180,3124
27682,3173,3123
27694,3177,3121
27705,3179,3144
27717,3177,3145
27729,3183,3156
27741,3176,3159
27753,3183,3148
27765,3189,3142
27776,3206,3141
27788,3206,3120
27800,3199,3103
27812,3178,3097
27824,3177,3089
27836,3183,3083
27847,3177,3075
27859,3167,3068
27871,3166,3064
27883,3175,3061
27895,3159,3059
27907,3157,3063
27918,3140,3066
27930,3140,3069
27942,3109,3080
27954,3099,3090
27966,3093,3100
27978,3111,3119
27989,3126,3142
28001,3163,3170
28013,3199,3205
28025,3245,3237
28037,3299,3272
28049,3361,3321
28060,3408,3374
28072,3437,3414
28084,3443,3447
28096,3454,3479
28108,3458,3496
28120,3447,3504
28131,3431,3507
28143,3413,3509
28155,3392,3487
28167,3372,3452
28179,3353,3436
28191,3311,3408
28202,3294,3380
28214,3268,3372
28226,3252,3348
28238,3245,3328
28250,3248,3321
28262,3240,3304
28273,3238,3303
28285,3233,3286
28297,3213,3281
28309,3195,3255
28321,3198,3261
28333,3190,3242
28344,3182,3230
28356,3182,3222
28368,3183,3198
28380,3196,3180
28392,3210,3152
28404,3217,3156
28416,3214,3140
28427,3193,3150
28439,3179,3172
28451,3163,3197
28463,3159,3220
28475,3158,3241
28487,3163,3248
28498,3159,3249
28510,3159,3239
28522,3165,3240
28534,3172,3231
28546,3167,3224
28557,3173,3216
28569,3158,3198
28581,3148,3178
28593,3141,3167
28605,3133,3155
28617,3126,3146
28628,3124,3127
28640,3131,3124
28652,3126,3126
28664,3124,3123
28676,3136,3124
28688,3151,3126
28699,3171,3121
28711,3178,3121
28723,3183,3120
28735,3172,3105
28747,3151,3077
28759,3141,3085
28771,3116,3069
28782,3098,3054
28794,3073,3058
28806,3070,3067
28818,3069,3074
28830,3056,3094
28842,3064,3121
28853,3065,3130
28865,3076,3160
28877,3115,3178
28889,3153,3227
28901,3202,3281
28913,3257,3339
28924,3293,3387
28936,3325,3440
28948,3366,3470
28960,3398,3519
28972,3398,3545
28984,3383,3560
28995,3378,3569
29007,3359,3560
29019,3333,3549
29031,3335,3526
29043,3318,3501
29055,3301,3478
29066,3286,3440
29078,3253,3413
29090,3240,3396
29102,3219,3362
29114,3213,3332
29126,3188,3307
29137,3179,3274
29149,3177,3252
29161,3166,3235
29173,3164,3223
29185,3168,3223
29197,3157,3220
29208,3160,3218
29220,3181,3224
29232,3181,3226
29244,3185,3227
29256,3194,3228
29268,3192,3237
29279,3187,3243
29291,3184,3255
29303,3179,3264
29315,3172,3254
29327,3185,3257
29339,3195,3253
29351,3198,3257
29362,3191,3248
29374,3181,3236
29386,3167,3225
29398,3164,3207
29410,3163,3187
29422,3169,3185
29433,3161,3179
29445,3171,3177
29457,3169,3161
29469,3154,3142
29481,3153,3150
29493,3156,3147
29504,3155,3164
29516,3149,3167
29528,3147,3179
29540,3157,3177
29552,3148,3168
29563,3153,3149
29575,3136,3139
29587,3134,3135
29599,3141,3121
29611,3129,3120
29623,3133,3123
29634,3116,3127
29646,3103,3139
29658,3092,3142
29670,3102,3144
29682,3129,3153
29694,3156,3167
29706,3192,3195
29717,3226,3231
29729,3248,3281
29741,3280,3326
29753,3309,3383
29765,3344,3447
29777,3380,3494
29788,3392,3557
29800,3395,3589
29812,3385,3612
29824,3399,3621
29836,3383,3613
29848,3380,3605
29859,3370,3584
29871,3350,3562
29883,3341,3528
29895,3311,3495
29907,3281,3469
29919,3254,3428
29930,3240,3399
29942,3216,3370
29954,3214,3345
29966,3200,3333
29978,3192,3309
29990,3186,3299
