timestamp_ms,ppg1,ppg2
0,3197,3246
11,3284,3351
23,3375,3467
35,3439,3557
47,3493,3657
59,3524,3726
71,3569,3788
82,3610,3826
94,3642,3830
106,3667,3819
118,3676,3777
130,3670,3731
141,3646,3677
153,3625,3631
165,3587,3564
177,3538,3514
189,3493,3468
200,3460,3432
212,3427,3396
224,3412,3345
236,3401,3298
248,3380,3245
260,3343,3194
271,3305,3161
283,3257,3129
295,3214,3114
307,3182,3094
319,3169,3092
330,3179,3080
342,3194,3090
354,3212,3087
366,3227,3088
378,3229,3086
390,3224,3076
401,3222,3068
413,3204,3064
425,3185,3056
437,3183,3038
449,3175,3022
460,3149,3010
472,3117,2999
484,3101,2999
496,3082,3003
508,3069,2998
520,3051,2998
531,3044,3013
543,3032,3017
555,3031,3024
567,3011,3023
579,3013,3021
591,3011,3004
602,2996,3014
614,2987,3003
626,2981,2998
638,2978,2996
650,2991,2996
661,3008,3003
673,3005,3021
685,3021,3027
697,3002,3023
709,3028,3018
721,3032,3004
732,3043,3001
744,3028,2983
756,3043,2974
768,3037,2972
780,3029,2965
791,3018,2975
803,3022,2990
815,3052,3034
827,3108,3102
839,3185,3199
850,3267,3316
862,3345,3439
874,3409,3561
886,3483,3671
898,3531,3756
910,3565,3816
921,3596,3850
933,3620,3848
945,3630,3832
957,3634,3800
969,3630,3760
980,3618,3699
992,3597,3641
1004,3571,3589
1016,3540,3542
1028,3495,3499
1040,3450,3456
1051,3388,3397
1063,3347,3347
1075,3325,3287
1087,3291,3240
1099,3277,3212
1111,3260,3167
1122,3247,3126
1134,3238,3110
1146,3215,3105
1158,3206,3106
1170,3183,3115
1181,3163,3118
1193,3141,3119
1205,3136,3126
1217,3131,3113
1229,3120,3118
1241,3125,3114
1252,3148,3104
1264,3175,3102
1276,3179,3089
1288,3182,3090
1300,3184,3081
1312,3160,3063
1323,3141,3046
1335,3108,3042
1347,3073,3021
1359,3047,3028
1371,3036,3022
1382,3022,3008
1394,3011,3007
1406,3000,3020
1418,2989,2996
1430,3002,2999
1442,3012,2993
1453,3014,2992
1465,2998,2989
1477,2987,2970
1489,2968,2968
1501,2959,2971
1513,2958,2980
1524,2956,2988
1536,2958,2992
1548,2981,2989
1560,2982,2999
1572,3000,3011
1583,2996,3018
1595,2994,3014
1607,2984,3008
1619,2981,3023
1631,2988,3040
1643,3014,3070
1654,3061,3126
1666,3126,3197
1678,3185,3300
1690,3252,3404
1702,3319,3521
1714,3385,3624
1725,3453,3716
1737,3500,3778
1749,3533,3812
1761,3561,3822
1773,3572,3814
1784,3572,3798
1796,3558,3763
1808,3547,3716
1820,3533,3674
1832,3540,3633
1844,3513,3590
1855,3484,3547
1867,3456,3499
1879,3427,3452
1891,3382,3394
1903,3347,3352
1914,3302,3303
1926,3278,3248
1938,3239,3202
1950,3209,3186
1962,3168,3170
1974,3141,3158
1985,3113,3132
1997,3091,3116
2009,3074,3107
2021,3043,3088
2033,3022,3088
2045,3019,3081
2056,3016,3074
2068,3021,3077
2080,3026,3079
2092,3029,3073
2104,3020,3066
2116,3019,3047
2127,3009,3053
2139,3007,3042
2151,3010,3030
2163,3003,3014
2175,2997,3008
2186,2982,3000
2198,2987,3007
2210,2976,3021
2222,2956,3017
2234,2956,3027
2246,2952,3037
2257,2942,3022
2269,2924,3012
2281,2911,3018
2293,2893,3028
2305,2867,3027
2316,2835,3031
2328,2821,3030
2340,2818,3032
2352,2833,3044
2364,2874,3058
2376,2914,3092
2387,2974,3143
2399,3052,3205
2411,3151,3277
2423,3260,3382
2435,3365,3488
2447,3460,3596
2458,3557,3695
2470,3646,3786
2482,3720,3839
2494,3773,3878
2506,3803,3895
2518,3797,3885
2529,3758,3860
2541,3702,3819
2553,3637,3759
2565,3585,3691
2577,3535,3617
2588,3498,3545
2600,3454,3481
2612,3417,3424
2624,3346,3362
2636,3295,3318
2648,3242,3279
2659,3212,3231
2671,3202,3192
2683,3216,3166
2695,3250,3132
2707,3291,3113
2719,3342,3111
2730,3385,3100
2742,3415,3093
2754,3421,3118
2766,3410,3131
2778,3376,3152
2790,3312,3165
2801,3242,3176
2813,3180,3182
2825,3125,3179
2837,3087,3168
2849,3070,3147
2861,3057,3134
2872,3041,3114
2884,3054,3090
2896,3062,3070
2908,3089,3058
2920,3097,3038
2932,3106,3043
2943,3112,3027
2955,3122,3026
2967,3126,3030
2979,3107,3027
2991,3087,3037
3002,3056,3033
3014,3024,3051
3026,2992,3044
3038,2954,3051
3050,2924,3045
3062,2911,3038
3073,2907,3020
3085,2922,3032
3097,2946,3023
3109,2981,3032
3121,3025,3059
3133,3079,3109
3144,3130,3184
3156,3213,3287
3168,3297,3393
3180,3374,3521
3192,3449,3638
3204,3508,3753
3215,3556,3846
3227,3582,3905
3239,3609,3947
3251,3605,3948
3263,3609,3930
3275,3611,3898
3286,3607,3848
3298,3597,3791
3310,3601,3722
3322,3607,3669
3334,3606,3604
3346,3605,3554
3357,3573,3492
3369,3533,3445
3381,3496,3399
3393,3459,3348
3405,3410,3308
3416,3365,3284
3428,3323,3256
3440,3292,3229
3452,3266,3201
3464,3254,3194
3476,3226,3180
3487,3201,3171
3499,3176,3152
3511,3170,3143
3523,3167,3137
3535,3160,3135
3547,3159,3132
3558,3137,3154
3570,3110,3169
3582,3080,3171
3594,3042,3165
3606,3009,3177
3617,2993,3178
3629,2974,3179
3641,2966,3161
3653,2967,3154
3665,2968,3137
3677,2964,3126
3688,2981,3110
3700,2975,3089
3712,2982,3084
3724,2997,3062
3736,3010,3040
3748,3039,3036
3759,3064,3026
3771,3069,3010
3783,3066,3011
3795,3070,2999
3807,3070,2994
3819,3072,2982
3830,3074,2972
3842,3079,2965
3854,3063,2957
3866,3078,2952
3878,3094,2936
3890,3100,2933
3901,3118,2933
3913,3132,2974
3925,3172,3043
3937,3223,3145
3949,3293,3268
3960,3380,3394
3972,3475,3533
3984,3588,3665
3996,3663,3775
4008,3725,3850
4020,3756,3916
4031,3769,3934
4043,3778,3934
4055,3763,3912
4067,3742,3872
4079,3715,3829
4091,3688,3777
4102,3656,3717
4114,3629,3663
4126,3614,3621
4138,3584,3566
4150,3575,3524
4162,3544,3474
4173,3519,3426
4185,3480,3379
4197,3431,3326
4209,3386,3290
4221,3329,3250
4232,3283,3224
4244,3247,3190
4256,3220,3175
4268,3201,3156
4280,3193,3165
4292,3196,3164
4303,3208,3154
4315,3212,3157
4327,3217,3169
4339,3203,3158
4351,3192,3146
4363,3168,3141
4374,3131,3131
4386,3110,3107
4398,3102,3089
4410,3088,3072
4422,3086,3053
4434,3080,3031
4445,3089,3019
4457,3096,3011
4469,3093,2988
4481,3090,2994
4493,3069,2983
4505,3053,2981
4516,3053,2972
4528,3052,2973
4540,3049,2977
4552,3063,2968
4564,3079,2980
4576,3083,2985
4587,3092,2991
4599,3097,2996
4611,3085,2993
4623,3072,2999
4635,3063,2996
4646,3045,2987
4658,3027,2986
4670,3007,2981
4682,2993,2979
4694,2986,2973
4706,2976,2981
4717,2973,2979
4729,2982,3009
4741,3007,3049
4753,3052,3102
4765,3112,3191
4777,3186,3299
4788,3281,3407
4800,3373,3532
4812,3466,3656
4824,3550,3775
4836,3603,3862
4847,3653,3926
4859,3679,3969
4871,3698,3984
4883,3715,3958
4895,3723,3909
4907,3725,3853
4918,3718,3792
4930,3690,3720
4942,3672,3659
4954,3644,3602
4966,3609,3542
4978,3579,3498
4989,3527,3448
5001,3480,3393
5013,3439,3350
5025,3387,3295
5037,3330,3260
5049,3303,3227
5060,3269,3199
5072,3250,3173
5084,3232,3160
5096,3215,3149
5108,3191,3137
5120,3188,3129
5131,3186,3130
5143,3192,3110
5155,3207,3115
5167,3193,3087
5179,3179,3068
5191,3141,3052
5202,3141,3034
5214,3122,3022
5226,3122,3022
5238,3114,3032
5250,3107,3042
5261,3106,3049
5273,3093,3040
5285,3063,3038
5297,3046,3031
5309,3012,3032
5321,2977,3026
5332,2958,3022
5344,2946,3016
5356,2939,3021
5368,2932,3020
5380,2922,3013
5392,2921,3020
5403,2921,3009
5415,2920,2998
5427,2901,2987
5439,2889,2970
5451,2883,2968
5463,2891,2967
5474,2888,2964
5486,2918,2968
5498,2943,2972
5510,2951,2983
5522,2940,2985
5533,2945,2992
5545,2935,2998
5557,2927,2994
5569,2911,3005
5581,2899,3005
5593,2908,3026
5604,2933,3048
5616,2987,3108
5628,3042,3173
5640,3119,3286
5652,3202,3407
5664,3294,3552
5675,3393,3666
5687,3476,3769
5699,3552,3852
5711,3598,3894
5723,3628,3921
5734,3639,3916
5746,3653,3872
5758,3645,3835
5770,3626,3784
5782,3597,3716
5794,3568,3671
5805,3526,3606
5817,3504,3564
5829,3485,3514
5841,3452,3457
5853,3411,3412
5865,3349,3366
5876,3302,3310
5888,3275,3268
5900,3251,3207
5912,3226,3153
5924,3215,3130
5936,3208,3105
5947,3186,3082
5959,3180,3089
5971,3186,3099
5983,3180,3114
5995,3179,3123
6006,3169,3120
6018,3158,3135
6030,3150,3140
6042,3132,3139
6054,3124,3132
6066,3113,3121
6077,3096,3106
6089,3103,3085
6101,3117,3075
6113,3127,3063
6125,3144,3053
6137,3139,3044
6148,3122,3034
6160,3126,3043
6172,3103,3036
6184,3075,3035
6196,3073,3032
6208,3043,3029
6219,3032,3044
6231,3017,3043
6243,2993,3036
6255,2977,3046
6267,2979,3050
6279,2959,3049
6290,2943,3066
6302,2922,3061
6314,2923,3052
6326,2932,3026
6338,2950,3022
6350,2973,3013
6361,3028,3030
6373,3079,3066
6385,3133,3128
6397,3202,3219
6409,3261,3332
6420,3331,3463
6432,3409,3579
6444,3484,3694
6456,3537,3792
6468,3589,3850
6480,3621,3878
6491,3663,3889
6503,3685,3875
6515,3689,3829
6527,3674,3770
6539,3647,3699
6551,3607,3627
6562,3564,3559
6574,3527,3494
6586,3492,3442
6598,3468,3400
6610,3434,3357
6622,3397,3314
6633,3356,3265
6645,3311,3236
6657,3274,3209
6669,3233,3175
6681,3204,3158
6693,3181,3132
6704,3159,3132
6716,3143,3128
6728,3146,3120
6740,3141,3115
6752,3167,3117
6764,3163,3116
6775,3149,3117
6787,3116,3099
6799,3101,3098
6811,3106,3094
6823,3099,3080
6834,3101,3068
6846,3076,3047
6858,3048,3032
6870,3029,3020
6882,3002,3000
6894,2991,2998
6905,2973,2978
6917,2963,2974
6929,2968,2972
6941,2982,2968
6953,3002,2971
6965,3027,2984
6976,3056,2978
6988,3072,2972
7000,3074,2980
7012,3071,2973
7024,3079,2977
7035,3073,2986
7047,3059,2983
7059,3054,2984
7071,3041,2980
7083,3056,2975
7095,3048,2965
7106,3036,2954
7118,3038,2950
7130,3032,2940
7142,3018,2940
7154,3011,2936
7166,3005,2923
7177,3012,2931
7189,3028,2959
7201,3046,2998
7213,3072,3055
7225,3129,3150
7237,3191,3259
7248,3257,3396
7260,3345,3525
7272,3429,3646
7284,3492,3746
7296,3544,3803
7307,3590,3865
7319,3623,3875
7331,3635,3883
7343,3656,3866
7355,3666,3848
7367,3662,3792
7378,3632,3737
7390,3604,3684
7402,3587,3619
7414,3570,3565
7426,3544,3503
7438,3509,3454
7449,3489,3399
7461,3452,3353
7473,3425,3307
7485,3391,3260
7497,3367,3220
7509,3338,3185
7520,3305,3159
7532,3288,3131
7544,3277,3110
7556,3260,3089
7568,3237,3083
7579,3223,3067
7591,3199,3050
7603,3182,3041
7615,3163,3036
7627,3146,3033
7639,3117,3032
7650,3105,3034
7662,3093,3021
7674,3087,3017
7686,3067,2992
7698,3070,2989
7710,3087,2974
7721,3087,2969
7733,3097,2964
7745,3099,2967
7757,3076,2975
7769,3060,2993
7781,3043,2988
7792,3015,2992
7804,3003,2992
7816,3009,2995
7828,3016,2987
7840,3003,2996
7851,2994,3009
7863,2984,3005
7875,2972,3007
7887,2961,3006
7899,2955,3004
7911,2945,3000
7922,2957,2995
7934,2967,2994
7946,2960,3001
7958,2966,3008
7970,2961,2995
7982,2974,3007
7993,2970,2999
8005,2972,2988
8017,2957,2971
8029,2949,2972
8041,2938,2962
8053,2938,2981
8064,2934,3010
8076,2966,3073
8088,3004,3155
8100,3061,3258
8112,3133,3378
8123,3209,3491
8135,3286,3602
8147,3356,3704
8159,3447,3771
8171,3518,3806
8183,3566,3844
8194,3608,3839
8206,3618,3820
8218,3609,3775
8230,3602,3736
8242,3610,3701
8254,3607,3641
8265,3609,3593
8277,3609,3555
8289,3592,3482
8301,3562,3441
8313,3531,3381
8325,3474,3327
8336,3415,3277
8348,3367,3218
8360,3317,3175
8372,3265,3139
8384,3238,3113
8395,3205,3094
8407,3173,3086
8419,3168,3093
8431,3164,3095
8443,3158,3096
8455,3164,3108
8466,3165,3099
8478,3176,3099
8490,3191,3098
8502,3190,3108
8514,3180,3089
8526,3177,3089
8537,3160,3084
8549,3136,3060
8561,3112,3044
8573,3089,3030
8585,3086,3027
8596,3078,3017
8608,3063,3000
8620,3047,2989
8632,3020,2992
8644,3009,2985
8656,2985,2982
8667,2964,2981
8679,2965,2974
8691,2968,2983
8703,2958,2974
8715,2945,2969
8727,2930,2973
8738,2929,2987
8750,2923,2990
8762,2926,2998
8774,2940,2998
8786,2949,2999
8798,2951,2990
8809,2967,2998
8821,2968,2996
8833,2978,2995
8845,2983,2983
8857,2969,2966
8868,2961,2970
8880,2947,2960
8892,2943,2969
8904,2962,2984
8916,2986,3028
8928,3016,3081
8939,3075,3180
8951,3153,3286
8963,3243,3412
8975,3343,3533
8987,3430,3639
8998,3508,3736
9010,3588,3800
9022,3646,3837
9034,3678,3847
9046,3693,3848
9058,3700,3814
9069,3701,3772
9081,3694,3723
9093,3671,3659
9105,3645,3575
9117,3640,3525
9129,3611,3463
9140,3576,3408
9152,3531,3362
9164,3467,3316
9176,3397,3278
9188,3332,3233
9200,3282,3198
9211,3227,3170
9223,3182,3153
9235,3158,3125
9247,3148,3113
9259,3141,3102
9271,3155,3098
9282,3152,3093
9294,3154,3096
9306,3148,3101
9318,3146,3110
9330,3141,3110
9341,3115,3093
9353,3077,3085
9365,3051,3076
9377,3048,3061
9389,3046,3042
9401,3056,3045
9412,3075,3030
9424,3094,3016
9436,3101,3007
9448,3094,2998
9460,3081,2992
9472,3065,2979
9483,3037,2975
9495,3012,2985
9507,2999,2982
9519,2978,2982
9531,2969,2977
9542,2966,2984
9554,2964,2984
9566,2967,2977
9578,2979,2990
9590,2987,2995
9602,3000,2999
9613,2994,2999
9625,2995,2992
9637,2996,2999
9649,2984,3007
9661,2988,2993
9673,2987,2984
9684,2986,2971
9696,2975,2967
9708,2961,2960
9720,2952,2946
9732,2954,2955
9744,2950,2956
9755,2943,2970
9767,2933,2960
9779,2943,2949
9791,2954,2963
9803,2978,3005
9815,3014,3066
9826,3077,3148
9838,3132,3249
9850,3225,3363
9862,3307,3482
9874,3390,3594
9885,3476,3706
9897,3530,3770
9909,3556,3823
9921,3581,3851
9933,3603,3851
9945,3647,3822
9956,3694,3783
9968,3720,3736
9980,3726,3678
9992,3727,3639
10004,3702,3570
10016,3681,3526
10027,3647,3488
10039,3613,3447
10051,3570,3430
10063,3537,3383
10075,3485,3339
10087,3427,3283
10098,3346,3239
10110,3301,3186
10122,3267,3146
10134,3249,3121
10146,3232,3095
10158,3233,3076
10169,3224,3062
10181,3208,3056
10193,3197,3058
10205,3178,3076
10217,3177,3094
10228,3174,3096
10240,3173,3099
10252,3176,3106
10264,3157,3108
10276,3149,3113
10288,3131,3101
10299,3115,3093
10311,3096,3074
10323,3071,3069
10335,3067,3055
10347,3064,3038
10359,3065,3021
10370,3061,3007
10382,3056,3003
10394,3052,3001
10406,3048,2983
10418,3045,2983
10430,3053,2981
10441,3039,2969
10453,3031,2980
10465,3016,2980
10477,3009,2978
10489,2993,2978
10501,2985,2978
10512,2978,2986
10524,2975,2980
10536,2963,2979
10548,2946,2979
10560,2927,2985
10572,2923,2990
10583,2918,2989
10595,2921,2994
10607,2921,2990
10619,2929,2985
10631,2943,2995
10643,2968,2980
10654,2984,3000
10666,2990,2994
10678,2997,2994
10690,3010,2999
10702,3016,3011
10714,3019,3028
10725,3027,3061
10737,3054,3085
10749,3100,3129
10761,3175,3190
10773,3245,3290
10785,3322,3380
10796,3394,3490
10808,3463,3599
10820,3537,3681
10832,3596,3754
10844,3662,3799
10856,3709,3807
10867,3742,3817
10879,3751,3786
10891,3752,3733
10903,3738,3687
10915,3710,3632
10926,3688,3593
10938,3659,3551
10950,3624,3520
10962,3583,3475
10974,3550,3438
10986,3492,3399
10998,3433,3352
11009,3379,3315
11021,3344,3286
11033,3307,3256
11045,3273,3222
11057,3255,3191
11068,3239,3174
11080,3226,3150
11092,3222,3123
11104,3212,3115
11116,3193,3102
11128,3183,3103
11139,3164,3098
11151,3146,3096
11163,3136,3087
11175,3133,3075
11187,3127,3066
11199,3135,3048
11210,3134,3053
11222,3110,3037
11234,3097,3041
11246,3089,3038
11258,3086,3036
11270,3086,3032
11281,3078,3028
11293,3054,3019
11305,3045,3015
11317,3048,2999
11329,3057,2996
11341,3060,2985
11352,3053,2978
11364,3048,2990
11376,3046,2991
11388,3037,2996
11400,3023,2999
11412,2995,3006
11423,2985,3012
11435,2974,3007
11447,2983,3016
11459,2989,3022
11471,2993,3028
11483,2980,3027
11494,2962,3020
11506,2967,3011
11518,2967,3004
11530,2968,3006
11542,2977,3005
11554,2979,2987
11565,2991,2984
11577,2993,2978
11589,3003,2967
11601,3001,2968
11613,3016,2997
11625,3043,3052
11636,3102,3132
11648,3173,3227
11660,3229,3337
11672,3306,3454
11684,3383,3554
11696,3477,3658
11707,3558,3743
11719,3617,3801
11731,3647,3839
11743,3695,3852
11755,3703,3831
11766,3722,3811
11778,3730,3783
11790,3726,3726
11802,3716,3686
11814,3701,3627
11826,3682,3570
11837,3657,3509
11849,3620,3469
11861,3588,3417
11873,3553,3373
11885,3492,3323
11897,3437,3266
11908,3392,3231
11920,3345,3192
11932,3301,3144
11944,3269,3127
11956,3236,3112
11968,3219,3099
11979,3212,3099
11991,3207,3098
12003,3202,3097
12015,3187,3097
12027,3180,3098
12039,3171,3097
12050,3157,3091
12062,3163,3078
12074,3162,3064
12086,3158,3059
12098,3159,3064
12110,3136,3055
12121,3108,3059
12133,3064,3062
12145,3031,3063
12157,3014,3059
12169,3011,3062
12181,3025,3067
12192,3027,3055
12204,3037,3050
12216,3032,3041
12228,3022,3033
12240,3004,3013
12252,2977,3001
12263,2959,2980
12275,2940,2978
12287,2938,2963
12299,2943,2956
12311,2956,2971
12322,2973,2980
12334,2983,3001
12346,2994,2996
12358,3007,3013
12370,3023,3022
12382,3037,3033
12394,3053,3039
12405,3052,3041
12417,3049,3039
12429,3046,3018
12441,3049,3021
12453,3042,3011
12465,3041,3020
12476,3029,3020
12488,3039,3047
12500,3070,3084
12512,3118,3142
12524,3182,3224
12536,3261,3309
12547,3333,3416
12559,3432,3527
12571,3526,3629
12583,3593,3704
12595,3656,3775
12606,3696,3823
12618,3736,3828
12630,3773,3832
12642,3773,3799
12654,3757,3762
12666,3738,3705
12677,3728,3642
12689,3710,3607
12701,3689,3564
12713,3666,3523
12725,3619,3471
12737,3570,3441
12748,3517,3387
12760,3463,3348
12772,3410,3293
12784,3363,3242
12796,3335,3192
12808,3306,3161
12819,3271,3135
12831,3246,3115
12843,3229,3117
12855,3227,3109
12867,3216,3119
12879,3203,3121
12890,3198,3110
12902,3203,3128
12914,3182,3119
12926,3188,3118
12938,3165,3112
12950,3144,3102
12961,3125,3095
12973,3130,3089
12985,3126,3073
12997,3121,3066
13009,3104,3049
13021,3073,3040
13032,3046,3032
13044,3030,3021
13056,3013,3028
13068,2999,3034
13080,2997,3025
13092,2997,3023
13103,3006,3018
13115,3003,3013
13127,3004,3009
13139,3002,3003
13151,3014,2981
13163,3017,2983
13174,3034,2980
13186,3039,2966
13198,3022,2969
13210,3017,2971
13222,3012,2976
13234,3009,2975
13245,2993,2975
13257,2986,2969
13269,2988,2962
13281,2985,2944
13293,2985,2948
13304,2972,2957
13316,2967,2964
13328,2972,2979
13340,2978,2973
13352,2988,2975
13364,2986,2982
13375,2990,2992
13387,2987,3003
13399,2993,3034
13411,3001,3081
13423,3045,3150
13435,3113,3240
13446,3204,3353
13458,3315,3461
13470,3409,3569
13482,3516,3676
13494,3605,3745
13506,3686,3801
13517,3728,3821
13529,3767,3826
13541,3794,3800
13553,3789,3765
13565,3765,3712
13577,3743,3676
13588,3731,3647
13600,3703,3610
13612,3670,3571
13624,3639,3533
13636,3610,3494
13648,3575,3452
13659,3544,3412
13671,3502,3381
13683,3453,3326
13695,3387,3268
13707,3343,3235
13719,3300,3203
13730,3270,3177
13742,3253,3152
13754,3232,3128
13766,3215,3118
13778,3179,3113
13790,3163,3105
13801,3150,3112
13813,3158,3101
13825,3166,3098
13837,3162,3102
13849,3148,3092
13861,3152,3093
13872,3165,3090
13884,3163,3085
13896,3154,3085
13908,3132,3069
13920,3124,3068
13932,3109,3053
13943,3102,3054
13955,3087,3060
13967,3064,3054
13979,3052,3062
13991,3018,3069
14003,2986,3055
14014,2966,3051
14026,2956,3054
14038,2965,3047
14050,2957,3051
14062,2966,3054
14073,2974,3057
14085,2969,3059
14097,2971,3049
14109,2974,3046
14121,2992,3043
14133,2997,3032
14144,3000,3029
14156,3009,3015
14168,3009,3004
14180,3006,3004
14192,3002,2994
14204,3005,2986
14215,3002,2990
14227,3001,2981
14239,3003,2988
14251,3002,2987
14263,2991,2984
14275,2987,3002
14286,2986,3009
14298,2997,3026
14310,3025,3058
14322,3091,3120
14334,3170,3198
14346,3265,3297
14357,3348,3405
14369,3441,3519
14381,3523,3627
14393,3599,3737
14405,3679,3801
14417,3723,3843
14428,3759,3854
14440,3778,3835
14452,3773,3802
14464,3746,3760
14476,3712,3707
14488,3669,3659
14499,3641,3615
14511,3609,3572
14523,3583,3539
14535,3544,3494
14547,3517,3460
14558,3492,3413
14570,3475,3387
14582,3457,3335
14594,3433,3301
14606,3406,3261
14618,3374,3239
14629,3336,3212
14641,3287,3185
14653,3241,3175
14665,3203,3164
14677,3180,3166
14689,3176,3149
14700,3181,3139
14712,3189,3132
14724,3190,3130
14736,3195,3135
14748,3197,3136
14760,3177,3143
14771,3165,3136
14783,3157,3139
14795,3129,3124
14807,3108,3116
14819,3076,3102
14831,3047,3090
14842,3035,3079
14854,3031,3070
14866,3039,3069
14878,3034,3071
14890,3035,3061
14902,3018,3048
14913,3005,3043
14925,3009,3030
14937,3024,3027
14949,3026,3014
14961,3043,3011
14973,3057,3016
14984,3058,3020
14996,3053,3017
15008,3051,3023
15020,3055,3021
15032,3061,3015
15044,3066,3009
15055,3057,3006
15067,3043,2997
15079,3034,3002
15091,3023,3006
15103,3015,3005
15115,3008,3008
15126,3009,3015
15138,3001,3022
15150,3011,3026
15162,2994,3019
15174,2976,3004
15186,2965,3013
15197,2968,3030
15209,2992,3053
15221,3034,3114
15233,3096,3195
15245,3180,3297
15257,3267,3419
15268,3366,3545
15280,3470,3662
15292,3561,3772
15304,3649,3858
15316,3719,3920
15328,3756,3942
15339,3783,3942
15351,3797,3922
15363,3806,3892
15375,3785,3849
15387,3747,3824
15399,3685,3759
15410,3632,3706
15422,3587,3663
15434,3558,3619
15446,3518,3561
15458,3488,3519
15470,3466,3475
15481,3427,3426
15493,3409,3373
15505,3373,3328
15517,3347,3280
15529,3327,3246
15540,3298,3225
15552,3275,3195
15564,3239,3178
15576,3235,3173
15588,3217,3161
15600,3192,3160
15611,3164,3163
15623,3144,3174
15635,3126,3178
15647,3098,3176
15659,3087,3161
15671,3077,3155
15682,3070,3138
15694,3076,3120
15706,3090,3110
15718,3104,3086
15730,3105,3070
15742,3109,3060
15753,3097,3061
15765,3082,3048
15777,3068,3043
15789,3057,3039
15801,3036,3030
15813,3035,3050
15824,3049,3051
15836,3058,3056
15848,3050,3049
15860,3045,3036
15872,3020,3030
15884,2998,3030
15895,3001,3027
15907,2996,3021
15919,3007,3026
15931,3005,3002
15943,2993,3001
15955,2995,3002
15966,2998,3013
15978,3004,3019
15990,2999,3021
16002,2973,3012
16014,2979,3016
16026,2967,3025
16037,2971,3010
16049,2991,3018
16061,3013,3011
16073,3012,3017
16085,3012,3034
16096,3041,3059
16108,3072,3105
16120,3117,3177
16132,3199,3271
16144,3272,3386
16156,3354,3516
16167,3420,3639
16179,3490,3747
16191,3568,3813
16203,3631,3884
16215,3680,3920
16227,3720,3936
16239,3746,3921
16250,3748,3878
16262,3746,3835
16274,3732,3793
16286,3690,3730
16298,3647,3688
16310,3595,3631
16321,3562,3585
16333,3533,3545
16345,3498,3505
16357,3459,3473
16369,3432,3441
16380,3403,3399
16392,3368,3356
16404,3329,3314
16416,3288,3273
16428,3253,3232
16440,3235,3219
16451,3222,3188
16463,3219,3166
16475,3200,3164
16487,3190,3150
16499,3189,3136
16511,3186,3133
16522,3167,3120
16534,3182,3128
16546,3182,3123
16558,3183,3121
16570,3168,3112
16582,3160,3107
16593,3132,3096
16605,3105,3079
16617,3073,3079
16629,3055,3073
16641,3041,3064
16653,3027,3063
16664,3020,3067
16676,3022,3057
16688,3029,3045
16700,3040,3035
16712,3053,3036
16724,3057,3029
16735,3061,3039
16747,3057,3038
16759,3054,3031
16771,3043,3026
16783,3023,3015
16795,2998,2999
16806,2986,3006
16818,2986,3017
16830,2988,3040
16842,2998,3049
16854,3026,3058
16865,3057,3080
16877,3065,3076
16889,3064,3087
16901,3053,3078
16913,3025,3087
16925,2989,3074
16936,2962,3071
16948,2938,3082
16960,2921,3106
16972,2940,3152
16984,2994,3217
16996,3046,3296
17007,3117,3387
17019,3177,3511
17031,3247,3623
17043,3319,3737
17055,3404,3825
17067,3483,3899
17078,3557,3942
17090,3617,3958
17102,3642,3943
17114,3660,3910
17126,3656,3843
17138,3670,3806
17149,3677,3728
17161,3666,3669
17173,3649,3618
17185,3635,3583
17197,3586,3543
17209,3549,3509
17220,3504,3465
17232,3440,3418
17244,3393,3365
17256,3358,3320
17268,3319,3270
17280,3290,3226
17291,3264,3201
17303,3236,3175
17315,3227,3158
17327,3213,3145
17339,3205,3137
17351,3191,3115
17362,3197,3127
17374,3183,3114
17386,3173,3117
17398,3162,3125
17410,3162,3122
17422,3157,3109
17433,3148,3104
17445,3132,3098
17457,3125,3095
17469,3118,3087
17481,3103,3086
17493,3095,3066
17504,3098,3073
17516,3088,3049
17528,3086,3043
17540,3053,3029
17552,3030,3037
17564,3004,3034
17575,2985,3025
17587,2995,3034
17599,2994,3032
17611,3017,3039
17623,3021,3039
17635,3010,3038
17646,2999,3038
17658,2987,3049
17670,2990,3054
17682,2983,3055
17694,2986,3064
17706,2984,3057
17717,2991,3052
17729,3001,3046
17741,2995,3034
17753,2978,3036
17765,2960,3035
17777,2951,3033
17788,2947,3048
17800,2960,3064
17812,3000,3093
17824,3047,3148
17836,3110,3243
17848,3182,3356
17859,3277,3483
17871,3383,3610
17883,3472,3724
17895,3558,3821
17907,3621,3891
17919,3676,3934
17930,3717,3959
17942,3743,3961
17954,3763,3932
17966,3757,3901
17978,3730,3843
17990,3695,3773
18001,3676,3708
18013,3635,3654
18025,3584,3612
18037,3540,3563
18049,3492,3520
18061,3454,3482
18072,3407,3443
18084,3368,3396
18096,3308,3357
18108,3288,3315
18120,3269,3270
18132,3259,3233
18143,3263,3196
18155,3257,3169
18167,3255,3154
18179,3252,3141
18191,3250,3132
18203,3237,3120
18214,3229,3121
18226,3217,3135
18238,3202,3121
18250,3182,3109
18262,3160,3111
18273,3140,3097
18285,3132,3112
18297,3112,3104
18309,3115,3093
18321,3106,3089
18333,3084,3078
18344,3086,3061
18356,3080,3048
18368,3071,3047
18380,3081,3037
18392,3080,3037
18404,3078,3021
18415,3084,3011
18427,3082,3000
18439,3075,3010
18451,3073,3008
18463,3074,3015
18475,3062,3003
18487,3065,3005
18498,3064,3015
18510,3073,3020
18522,3068,3019
18534,3065,3025
18546,3063,3023
18557,3053,3013
18569,3044,3024
18581,3042,3027
18593,3039,3034
18605,3037,3048
18617,3033,3039
18628,3027,3042
18640,3019,3042
18652,3016,3034
18664,3014,3034
18676,3019,3041
18688,3038,3074
18699,3059,3125
18711,3113,3213
18723,3185,3310
18735,3270,3435
18747,3361,3541
18759,3451,3664
18770,3533,3758
18782,3587,3823
18794,3657,3880
18806,3713,3909
18818,3773,3935
18830,3802,3922
18841,3803,3881
18853,3811,3855
18865,3793,3798
18877,3753,3749
18889,3709,3691
18901,3659,3638
18912,3617,3600
18924,3586,3562
18936,3544,3537
18948,3494,3490
18960,3446,3439
18972,3383,3392
18983,3341,3340
18995,3305,3294
19007,3283,3258
19019,3272,3207
19031,3261,3182
19043,3249,3146
19054,3263,3123
19066,3257,3100
19078,3251,3091
19090,3249,3084
19102,3225,3065
19114,3218,3064
19125,3205,3058
19137,3184,3052
19149,3154,3039
19161,3140,3040
19173,3114,3036
19185,3098,3023
19196,3078,3025
19208,3070,3029
19220,3059,3028
19232,3068,3028
19244,3066,3030
19256,3070,3020
19267,3066,3014
19279,3059,3010
19291,3057,2997
19303,3050,3002
19315,3054,3006
19327,3059,2999
19338,3063,3008
19350,3079,3005
19362,3082,3008
19374,3093,3020
19386,3091,3035
19398,3070,3023
19409,3055,3022
19421,3050,3037
19433,3046,3023
19445,3044,3036
19457,3032,3046
19469,3014,3032
19480,2999,3035
19492,2993,3032
19504,3004,3038
19516,2993,3032
19528,3000,3029
19540,2981,3019
19551,2993,3008
19563,3000,3002
19575,3004,3010
19587,3008,3003
19599,3022,3037
19611,3047,3099
19622,3082,3159
19634,3146,3270
19646,3224,3387
19658,3300,3515
19670,3383,3621
19682,3458,3729
19693,3538,3812
19705,3589,3858
19717,3630,3894
19729,3670,3897
19741,3671,3873
19753,3677,3840
19764,3675,3792
19776,3666,3754
19788,3648,3706
19800,3627,3665
19812,3609,3613
19823,3602,3578
19835,3594,3551
19847,3570,3523
19859,3552,3474
19871,3511,3431
19883,3470,3370
19894,3419,3301
19906,3360,3236
19918,3302,3183
19930,3249,3138
19942,3198,3098
19954,3187,3083
19965,3198,3080
19977,3193,3074
19989,3182,3074
20001,3176,3083
20013,3171,3087
20025,3186,3093
20036,3179,3106
20048,3176,3109
20060,3171,3110
20072,3165,3098
20084,3147,3092
20096,3119,3075
20108,3102,3067
20119,3082,3045
20131,3073,3031
20143,3052,3017
20155,3044,3010
20167,3027,2995
20178,3005,2987
20190,2998,2983
20202,2997,2986
20214,3006,2965
20226,3002,2969
20238,3005,2981
20249,3014,2973
20261,3022,2967
20273,3019,2969
20285,3004,2960
20297,2994,2964
20309,2982,2964
20320,2958,2968
20332,2939,2966
20344,2915,2964
20356,2929,2976
20368,2937,2988
20380,2939,2988
20391,2941,2986
20403,2949,2988
20415,2961,2995
20427,2952,2992
20439,2960,2996
20451,2973,2994
20462,2972,2987
20474,2970,2966
20486,2983,2980
20498,2996,2975
20510,3012,2993
20522,3037,3023
20533,3080,3082
20545,3129,3157
20557,3197,3248
20569,3274,3362
20581,3340,3465
20593,3392,3559
20604,3453,3659
20616,3495,3726
20628,3537,3791
20640,3582,3816
20652,3617,3834
20664,3648,3812
20675,3670,3791
20687,3692,3750
20699,3711,3717
20711,3704,3682
20723,3697,3635
20735,3672,3589
20746,3634,3539
20758,3575,3514
20770,3518,3471
20782,3466,3430
20794,3428,3373
20806,3372,3316
20817,3330,3267
20829,3291,3219
20841,3246,3182
20853,3210,3150
20865,3188,3119
20877,3192,3105
20888,3190,3085
20900,3180,3050
20912,3184,3028
20924,3195,3020
20936,3201,3003
20948,3191,3007
20959,3173,3000
20971,3138,3012
20983,3112,3032
20995,3086,3039
21007,3077,3045
21019,3070,3045
21030,3066,3041
21042,3057,3040
21054,3072,3039
21066,3070,3028
21078,3062,3017
21090,3065,3024
21101,3058,3002
21113,3043,3003
21125,3036,2996
21137,3041,2982
21149,3042,2988
21161,3033,2989
21172,3048,2989
21184,3052,3002
21196,3055,3001
21208,3067,3003
21220,3053,3022
21232,3057,3046
21243,3053,3055
21255,3047,3052
21267,3032,3055
21279,3036,3050
21291,3041,3034
21303,3041,3030
21314,3041,3021
21326,3045,3009
21338,3038,3004
21350,3025,2990
21362,3014,2993
21374,3011,2981
21385,3022,2990
21397,3015,2975
21409,3018,2971
21421,3008,2959
21433,3004,2960
21445,3015,2993
21456,3031,3031
21468,3075,3099
21480,3140,3170
21492,3221,3285
21504,3306,3393
21516,3390,3494
21527,3462,3596
21539,3522,3682
21551,3583,3744
21563,3633,3781
21575,3671,3799
21587,3690,3805
21598,3702,3779
21610,3696,3745
21622,3663,3703
21634,3626,3652
21646,3566,3595
21658,3531,3532
21669,3508,3479
21681,3500,3453
21693,3493,3431
21705,3476,3397
21717,3462,3352
21729,3442,3318
21740,3410,3273
21752,3378,3239
21764,3343,3209
21776,3305,3181
21788,3266,3143
21800,3226,3132
21811,3213,3113
21823,3195,3103
21835,3162,3086
21847,3147,3074
21859,3147,3069
21871,3147,3059
21882,3145,3059
21894,3119,3050
21906,3112,3060
21918,3110,3064
21930,3096,3054
21942,3074,3055
21953,3075,3050
21965,3056,3045
21977,3039,3037
21989,3035,3027
22001,3022,3023
22013,3022,3017
22024,3027,3005
22036,3042,2990
22048,3040,2998
22060,3036,3000
22072,3028,2989
22084,3020,2990
22095,3017,2995
22107,3014,2992
22119,3012,3001
22131,3016,2993
22143,3031,2994
22155,3041,2998
22166,3046,2989
22178,3032,2990
22190,3022,2980
22202,3009,2977
22214,2987,2976
22225,2988,2970
22237,2972,2967
22249,2972,2970
22261,2990,2970
22273,2990,2961
22285,2995,2955
22296,2995,2968
22308,2980,2967
22320,2963,2979
22332,2940,2968
22344,2909,2973
22356,2889,2977
22367,2897,2969
22379,2914,2959
22391,2928,2958
22403,2923,2969
22415,2942,3006
22427,2976,3053
22439,3025,3114
22450,3086,3198
22462,3170,3300
22474,3263,3403
22486,3344,3505
22498,3424,3597
22510,3490,3685
22521,3553,3753
22533,3598,3804
22545,3627,3831
22557,3656,3832
22569,3690,3814
22580,3698,3776
22592,3687,3726
22604,3669,3660
22616,3640,3617
22628,3605,3565
22640,3579,3516
22651,3550,3470
22663,3535,3429
22675,3506,3372
22687,3473,3325
22699,3427,3273
22711,3388,3242
22722,3343,3212
22734,3301,3176
22746,3264,3142
22758,3230,3100
22770,3214,3086
22782,3178,3063
22794,3157,3054
22805,3148,3043
22817,3133,3035
22829,3139,3027
22841,3150,3042
22853,3148,3031
22865,3127,3041
22876,3105,3041
22888,3099,3049
22900,3089,3042
22912,3102,3031
22924,3119,3022
22935,3126,3021
22947,3144,3023
22959,3137,3025
22971,3118,3022
22983,3102,3029
22995,3083,3019
23006,3073,3018
23018,3057,3016
23030,3046,3006
23042,3020,3010
23054,3006,3015
23066,3013,3030
23077,2998,3014
23089,2993,3006
23101,3000,3009
23113,2978,3003
23125,2957,2996
23137,2933,2995
23149,2928,2998
23160,2925,2998
23172,2933,2986
23184,2943,2995
23196,2947,3003
23208,2958,2994
23220,2955,2996
23231,2955,2994
23243,2957,2989
23255,2968,2995
23267,2977,2987
23279,2994,2978
23290,2998,2978
23302,3002,2981
23314,3011,2990
23326,3024,3020
23338,3066,3062
23350,3119,3128
23361,3204,3219
23373,3269,3333
23385,3346,3451
23397,3413,3555
23409,3480,3642
23421,3533,3729
23432,3584,3779
23444,3621,3804
23456,3633,3802
23468,3632,3802
23480,3650,3775
23492,3662,3737
23503,3657,3685
23515,3655,3638
23527,3648,3599
23539,3617,3562
23551,3586,3526
23563,3565,3489
23574,3521,3462
23586,3486,3416
23598,3449,3371
23610,3412,3324
23622,3369,3289
23634,3320,3252
23645,3281,3221
23657,3249,3196
23669,3212,3181
23681,3175,3157
23693,3178,3140
23705,3169,3118
23717,3178,3113
23728,3172,3104
23740,3153,3094
23752,3138,3078
23764,3122,3067
23776,3096,3066
23788,3097,3059
23799,3091,3048
23811,3097,3046
23823,3111,3041
23835,3103,3033
23847,3107,3031
23859,3088,3022
23870,3071,3011
23882,3056,3024
23894,3054,3027
23906,3050,3020
23918,3045,3026
23929,3039,3036
23941,3038,3042
23953,3045,3056
23965,3045,3051
23977,3056,3038
23989,3059,3026
24000,3058,3014
24012,3057,3004
24024,3034,3001
24036,3025,3005
24048,3016,3005
24060,3002,3000
24071,2969,3005
24083,2954,3003
24095,2938,2993
24107,2923,2988
24119,2903,2991
24131,2911,3000
24143,2909,3001
24154,2916,3007
24166,2914,2999
24178,2916,3005
24190,2933,3015
24202,2938,3012
24214,2934,3013
24225,2925,3019
24237,2938,3037
24249,2962,3069
24261,3012,3136
24273,3077,3210
24284,3167,3315
24296,3277,3427
24308,3373,3553
24320,3454,3644
24332,3536,3742
24344,3603,3820
24355,3674,3866
24367,3721,3892
24379,3761,3880
24391,3780,3852
24403,3773,3813
24415,3753,3774
24426,3695,3722
24438,3635,3676
24450,3569,3618
24462,3516,3583
24474,3475,3556
24486,3431,3508
24498,3414,3481
24509,3389,3427
24521,3375,3398
24533,3368,3352
24545,3344,3311
24557,3325,3275
24569,3300,3233
24580,3281,3202
24592,3264,3176
24604,3244,3143
24616,3237,3124
24628,3198,3104
24640,3187,3107
24651,3153,3104
24663,3118,3113
24675,3119,3121
24687,3128,3121
24699,3140,3127
24710,3146,3113
24722,3159,3102
24734,3159,3096
24746,3146,3078
24758,3130,3069
24770,3103,3046
24781,3086,3041
24793,3073,3037
24805,3062,3025
24817,3057,3021
24829,3060,3013
24841,3065,3038
24852,3053,3031
24864,3067,3049
24876,3080,3044
24888,3090,3046
24900,3086,3047
24912,3079,3044
24924,3069,3048
24935,3061,3034
24947,3039,3046
24959,3035,3049
24971,3020,3059
24983,3009,3068
24995,3010,3065
25006,3007,3068
25018,3015,3056
25030,3030,3055
25042,3031,3047
25054,3023,3044
25065,3009,3039
25077,2998,3023
25089,2978,3007
25101,2949,2996
25113,2960,2986
25125,2994,2998
25136,3019,3022
25148,3052,3062
25160,3086,3117
25172,3153,3198
25184,3226,3300
25196,3305,3406
25207,3390,3512
25219,3480,3615
25231,3572,3724
25243,3644,3804
25255,3703,3850
25267,3749,3891
25278,3784,3903
25290,3796,3884
25302,3791,3861
25314,3761,3819
25326,3710,3759
25338,3669,3706
25349,3627,3661
25361,3589,3610
25373,3569,3575
25385,3552,3539
25397,3534,3501
25409,3484,3459
25420,3457,3413
25432,3412,3369
25444,3375,3328
25456,3338,3287
25468,3324,3251
25480,3296,3211
25491,3271,3183
25503,3240,3172
25515,3228,3172
25527,3227,3166
25539,3225,3163
25551,3224,3165
25562,3234,3164
25574,3233,3160
25586,3226,3153
25598,3217,3129
25610,3213,3118
25622,3189,3111
25633,3161,3088
25645,3135,3083
25657,3107,3072
25669,3068,3063
25681,3055,3053
25693,3051,3062
25704,3057,3040
25716,3091,3050
25728,3114,3057
25740,3130,3060
25752,3142,3066
25764,3153,3064
25775,3163,3069
25787,3159,3083
25799,3154,3070
25811,3145,3075
25823,3139,3059
25835,3138,3051
25846,3121,3048
25858,3102,3039
25870,3088,3041
25882,3072,3035
25894,3046,3035
25906,3033,3022
25917,3020,3033
25929,3001,3030
25941,2995,3023
25953,2996,3024
25965,2999,3008
25977,3023,3004
25989,3030,3019
26000,3039,3034
26012,3036,3059
26024,3037,3105
26036,3066,3191
26048,3113,3282
26060,3180,3389
26071,3256,3514
26083,3337,3637
26095,3409,3741
26107,3486,3833
26119,3555,3886
26131,3619,3928
26142,3660,3948
26154,3691,3942
26166,3697,3920
26178,3689,3874
26190,3668,3825
26202,3625,3766
26213,3613,3720
26225,3598,3672
26237,3597,3622
26249,3593,3582
26261,3604,3544
26273,3598,3499
26284,3564,3464
26296,3527,3427
26308,3484,3374
26320,3443,3316
26332,3384,3267
26344,3339,3230
26355,3291,3198
26367,3265,3171
26379,3250,3160
26391,3240,3159
26403,3232,3157
26415,3223,3148
26426,3192,3125
26438,3172,3116
26450,3165,3112
26462,3166,3101
26474,3165,3086
26486,3152,3068
26497,3125,3060
26509,3100,3043
26521,3070,3027
26533,3059,3020
26545,3037,3013
26557,3021,3001
26568,3025,3004
26580,3015,2999
26592,3007,3000
26604,3014,2997
26616,2998,3010
26628,2999,3010
26639,2984,3022
26651,2982,3013
26663,2991,3028
26675,3004,3038
26687,3009,3045
26699,3020,3058
26710,3030,3066
26722,3015,3062
26734,3012,3053
26746,3011,3045
26758,3012,3046
26770,3007,3043
26781,3000,3050
26793,2999,3033
26805,3007,3036
26817,2998,3023
26829,2994,3018
26841,2988,3014
26852,2983,3011
26864,2978,3023
26876,2985,3030
26888,3017,3061
26900,3053,3101
26912,3086,3177
26923,3147,3272
26935,3217,3407
26947,3306,3536
26959,3384,3659
26971,3457,3775
26983,3518,3866
26995,3571,3941
27006,3608,3969
27018,3629,3988
27030,3644,3974
27042,3644,3941
27054,3648,3894
27066,3646,3839
27077,3646,3786
27089,3647,3737
27101,3637,3686
27113,3622,3648
27125,3596,3602
27137,3562,3567
27148,3508,3518
27160,3459,3475
27172,3405,3427
27184,3357,3380
27196,3317,3325
27208,3301,3286
27219,3283,3240
27231,3278,3213
27243,3254,3194
27255,3237,3171
27267,3238,3143
27279,3232,3131
27290,3226,3111
27302,3218,3103
27314,3204,3099
27326,3197,3093
27338,3175,3094
27350,3164,3079
27361,3150,3086
27373,3140,3076
27385,3111,3070
27397,3111,3068
27409,3106,3063
27421,3112,3063
27433,3119,3061
27444,3124,3050
27456,3114,3037
27468,3090,3034
27480,3082,3033
27492,3056,3015
27504,3054,3028
27515,3037,3025
27527,3050,3029
27539,3043,3026
27551,3035,3031
27563,3032,3030
27575,3027,3037
27586,3042,3042
27598,3053,3042
27610,3052,3043
27622,3053,3060
27634,3040,3052
27646,3046,3070
27657,3056,3068
27669,3068,3064
27681,3060,3043
27693,3050,3034
27705,3046,3031
27717,3046,3003
27728,3049,2997
27740,3049,2980
27752,3039,2980
27764,3033,2991
27776,3038,3023
27788,3066,3086
27799,3114,3147
27811,3165,3252
27823,3223,3403
27835,3297,3544
27847,3384,3686
27859,3461,3834
27870,3553,3951
27882,3621,4032
27894,3676,4066
27906,3702,4091
27918,3716,4070
27930,3747,4042
27941,3738,3994
27953,3736,3945
27965,3730,3876
27977,3694,3820
27989,3668,3771
28001,3626,3725
28012,3604,3684
28024,3578,3646
28036,3526,3598
28048,3481,3549
28060,3428,3490
28072,3393,3433
28083,3345,3376
28095,3322,3325
28107,3279,3288
28119,3263,3248
28131,3266,3214
28143,3247,3194
28154,3226,3174
28166,3217,3162
28178,3211,3158
28190,3197,3152
28202,3183,3149
28214,3183,3160
28225,3182,3148
28237,3160,3140
28249,3133,3121
28261,3133,3111
28273,3128,3087
28285,3147,3075
28296,3150,3054
28308,3135,3036
28320,3127,3026
28332,3116,3030
28344,3107,3024
28356,3094,3040
28368,3090,3021
28379,3073,3011
28391,3060,3009
28403,3043,2995
28415,3032,3000
28427,3020,3003
28439,3016,3003
28450,3028,3001
28462,3036,2994
28474,3046,2995
28486,3049,2985
28498,3062,2979
28510,3056,2987
28521,3051,2992
28533,3037,2991
28545,3029,3002
28557,3009,3003
28569,2999,3003
28581,3010,3013
28592,3035,3018
28604,3037,3019
28616,3029,3016
28628,3055,3024
28640,3059,3026
28652,3073,3013
28663,3078,3023
28675,3080,3025
28687,3064,3030
28699,3061,3067
28711,3099,3136
28723,3139,3235
28734,3195,3371
28746,3265,3528
28758,3360,3679
28770,3435,3822
28782,3526,3946
28794,3598,4043
28805,3659,4095
28817,3696,4095
28829,3717,4095
28841,3727,4073
28853,3727,4023
28865,3722,3960
28876,3710,3892
28888,3690,3815
28900,3665,3743
28912,3649,3683
28924,3632,3610
28936,3610,3554
28947,3579,3503
28959,3518,3445
28971,3469,3406
28983,3419,3344
28995,3376,3301
29007,3328,3257
29018,3294,3227
29030,3270,3202
29042,3255,3177
29054,3252,3151
29066,3233,3147
29078,3221,3134
29089,3202,3140
29101,3184,3125
29113,3171,3135
29125,3162,3127
29137,3164,3128
29149,3156,3125
29160,3170,3113
29172,3188,3116
29184,3174,3094
29196,3168,3085
29208,3157,3078
29220,3141,3068
29231,3128,3046
29243,3122,3027
29255,3129,3010
29267,3123,2993
29279,3101,2978
29291,3092,2978
29302,3094,2978
29314,3083,2980
29326,3078,2973
29338,3062,2978
29350,3044,2982
29362,3037,2991
29373,3038,2994
29385,3019,2986
29397,3012,2986
29409,3011,2993
29421,3015,3003
29433,3012,3016
29445,3001,3004
29456,3001,3016
29468,3011,3017
29480,3011,3003
29492,2998,3012
29504,2985,3009
29516,2982,3012
29527,2982,3025
29539,2973,3013
29551,2957,3010
29563,2961,3005
29575,2940,3003
29587,2944,3001
29598,2937,2995
29610,2926,3004
29622,2918,3010
29634,2925,3038
29646,2949,3073
29658,3005,3152
29669,3079,3245
29681,3165,3372
29693,3255,3516
29705,3336,3662
29717,3422,3796
29729,3521,3901
29740,3596,3993
29752,3671,4046
29764,3720,4041
29776,3738,4025
29788,3743,3997
29800,3737,3928
29811,3727,3865
29823,3703,3792
29835,3674,3720
29847,3650,3651
29859,3621,3596
29871,3584,3546
29882,3537,3517
29894,3510,3476
29906,3458,3440
29918,3406,3372
29930,3358,3329
29942,3312,3299
29953,3285,3237
29965,3256,3202
29977,3238,3170
29989,3234,3141
