timestamp_ms,ppg1,ppg2
0,3165,3103
12,3462,3152
23,3802,3225
35,4095,3324
47,4095,3411
59,4095,3468
71,4095,3499
83,4095,3487
94,4095,3451
106,4095,3416
118,4095,3395
130,4095,3374
142,4095,3358
153,4007,3318
165,3681,3281
177,3422,3237
189,3234,3202
201,3121,3166
213,3033,3138
224,2970,3120
236,2912,3108
248,2893,3093
260,2881,3080
272,2891,3089
283,2914,3081
295,2945,3081
307,2984,3083
319,3025,3102
331,3044,3109
343,3057,3116
354,3067,3123
366,3083,3128
378,3084,3136
390,3062,3133
402,3035,3144
414,2977,3149
425,2917,3141
437,2876,3140
449,2838,3132
461,2807,3135
473,2790,3125
484,2774,3110
496,2748,3100
508,2729,3097
520,2703,3072
532,2669,3069
544,2659,3068
555,2658,3065
567,2654,3065
579,2669,3060
591,2681,3058
603,2685,3077
614,2670,3081
626,2659,3096
638,2651,3106
650,2658,3113
662,2641,3106
674,2631,3115
685,2631,3111
697,2649,3109
709,2735,3119
721,2912,3143
733,3176,3188
744,3500,3254
756,3826,3333
768,4095,3403
780,4095,3470
792,4095,3507
804,4095,3516
815,4095,3512
827,4095,3486
839,4095,3443
851,4056,3392
863,3855,3346
874,3648,3301
886,3485,3264
898,3369,3235
910,3275,3209
922,3193,3170
934,3133,3145
945,3085,3127
957,3039,3113
969,2999,3099
981,2949,3090
993,2913,3081
1004,2892,3083
1016,2896,3087
1028,2895,3107
1040,2921,3117
1052,2934,3128
1064,2951,3121
1075,2951,3126
1087,2947,3118
1099,2954,3138
1111,2956,3137
1123,2932,3141
1135,2893,3141
1146,2847,3148
1158,2794,3138
1170,2739,3134
1182,2694,3124
1194,2674,3112
1205,2648,3096
1217,2634,3084
1229,2617,3063
1241,2632,3043
1253,2651,3045
1265,2667,3060
1276,2687,3074
1288,2701,3100
1300,2702,3119
1312,2691,3101
1324,2661,3094
1336,2645,3098
1347,2642,3104
1359,2638,3101
1371,2641,3110
1383,2619,3111
1395,2604,3121
1407,2595,3111
1418,2589,3109
1430,2609,3095
1442,2694,3109
1454,2844,3124
1466,3084,3151
1477,3383,3222
1489,3687,3309
1501,3955,3392
1513,4095,3451
1525,4095,3498
1537,4095,3515
1548,4095,3502
1560,4095,3472
1572,3940,3428
1584,3745,3376
1596,3566,3318
1608,3412,3257
1619,3287,3213
1631,3183,3159
1643,3109,3121
1655,3048,3114
1667,2994,3097
1678,2936,3090
1690,2891,3092
1702,2845,3077
1714,2810,3072
1726,2772,3058
1738,2689,2967
1749,2737,3004
1761,2775,3026
1773,2824,3036
1785,2870,3063
1797,2951,3132
1809,2975,3176
1820,2981,3201
1832,2964,3198
1844,2939,3197
1856,2887,3175
1868,2826,3156
1879,2761,3141
1891,2703,3124
1903,2666,3117
1915,2624,3094
1927,2591,3086
1939,2548,3073
1950,2508,3060
1962,2504,3052
1974,2507,3057
1986,2533,3057
1998,2560,3058
2010,2588,3066
2021,2614,3077
2033,2646,3087
2045,2666,3082
2057,2684,3089
2069,2708,3106
2081,2727,3103
2092,2744,3128
2104,2761,3129
2116,2754,3127
2128,2758,3126
2140,2764,3129
2151,2749,3122
2163,2739,3113
2175,2726,3119
2187,2794,3130
2199,2934,3150
2211,3150,3192
2222,3436,3253
2234,3732,3334
2246,4009,3405
2258,4095,3477
2270,4095,3523
2282,4095,3543
2293,4095,3535
2305,4095,3499
2317,3943,3454
2329,3729,3409
2341,3510,3348
2353,3311,3285
2364,3146,3237
2376,3020,3193
2388,2923,3174
2400,2882,3145
2412,2838,3118
2424,2806,3115
2435,2775,3108
2447,2770,3118
2459,2775,3111
2471,2761,3128
2483,2787,3134
2494,2825,3160
2506,2877,3164
2518,2906,3182
2530,2947,3197
2542,2957,3195
2554,2976,3207
2565,2979,3206
2577,2964,3206
2589,2931,3197
2601,2900,3184
2613,2868,3181
2625,2812,3156
2636,2754,3137
2648,2695,3126
2660,2659,3117
2672,2640,3115
2684,2626,3087
2696,2621,3090
2707,2630,3078
2719,2633,3091
2731,2650,3090
2743,2644,3084
2755,2620,3079
2766,2601,3084
2778,2596,3082
2790,2586,3095
2802,2589,3089
2814,2590,3093
2826,2577,3073
2837,2572,3084
2849,2595,3085
2861,2655,3086
2873,2789,3099
2885,3010,3134
2897,3306,3195
2908,3633,3278
2920,3941,3361
2932,4095,3436
2944,4095,3501
2956,4095,3537
2968,4095,3546
2979,4095,3525
2991,3995,3482
3003,3787,3444
3015,3573,3393
3027,3360,3335
3039,3183,3292
3050,3047,3262
3062,2935,3221
3074,2833,3189
3086,2753,3160
3098,2685,3125
3109,2641,3101
3121,2602,3087
3133,2578,3095
3145,2574,3091
3157,2578,3092
3169,2599,3086
3180,2629,3090
3192,2682,3102
3204,2739,3136
3216,2803,3146
3228,2847,3156
3240,2859,3146
3251,2867,3153
3263,2849,3148
3275,2838,3151
3287,2832,3156
3299,2818,3153
3311,2782,3125
3322,2765,3129
3334,2756,3110
3346,2741,3125
3358,2715,3127
3370,2698,3123
3382,2675,3119
3393,2659,3118
3405,2641,3115
3417,2647,3126
3429,2651,3108
3441,2654,3111
3452,2654,3114
3464,2655,3117
3476,2655,3121
3488,2648,3120
3500,2621,3122
3512,2597,3124
3523,2582,3127
3535,2590,3119
3547,2656,3127
3559,2817,3150
3571,3068,3179
3583,3416,3262
3594,3795,3337
3606,4095,3418
3618,4095,3507
3630,4095,3579
3642,4095,3608
3654,4095,3615
3665,4095,3599
3677,4095,3562
3689,4055,3518
3701,3774,3461
3713,3503,3387
3724,3290,3337
3736,3125,3282
3748,3036,3236
3760,2955,3212
3772,2918,3192
3784,2893,3180
3795,2867,3176
3807,2861,3174
3819,2862,3163
3831,2879,3165
3843,2896,3152
3855,2938,3163
3866,2994,3172
3878,3023,3184
3890,3064,3170
3902,3096,3175
3914,3112,3170
3926,3105,3166
3937,3073,3166
3949,3051,3160
3961,3023,3154
3973,2993,3153
3985,2966,3143
3997,2915,3132
4008,2840,3116
4020,2759,3106
4032,2705,3094
4044,2619,3078
4056,2555,3079
4068,2498,3080
4079,2448,3073
4091,2426,3083
4103,2411,3091
4115,2404,3085
4127,2430,3085
4138,2463,3089
4150,2502,3091
4162,2535,3092
4174,2577,3097
4186,2619,3095
4198,2649,3099
4209,2670,3106
4221,2708,3106
4233,2749,3107
4245,2790,3112
4257,2891,3140
4269,3044,3172
4280,3306,3222
4292,3663,3306
4304,4036,3398
4316,4095,3516
4328,4095,3593
4340,4095,3644
4351,4095,3628
4363,4095,3575
4375,4095,3541
4387,4095,3494
4399,4095,3457
4411,4095,3454
4422,4095,3469
4434,4095,3478
4446,4095,3455
4458,3911,3423
4470,3647,3389
4481,3410,3359
4493,3189,3316
4505,3014,3270
4517,2863,3236
4529,2724,3210
4541,2589,3174
4552,2506,3159
4564,2463,3157
4576,2494,3166
4588,2572,3190
4600,2679,3197
4612,2762,3217
4623,2837,3240
4635,2940,3252
4647,3057,3265
4659,3206,3286
4671,3322,3343
4683,3358,3426
4694,3273,3487
4706,3129,3551
4718,2962,3587
4730,2846,3616
4742,2826,3666
4754,2913,3734
4765,3088,3804
4777,3253,3888
4789,3369,3972
4801,3390,4064
4813,3328,4095
4825,3215,4095
4836,3017,4095
4848,2691,4095
4860,2228,4095
4872,1729,4095
4884,1330,4095
4895,1120,4095
4907,1087,4095
4919,1235,4095
4931,1509,4095
4943,1900,4095
4955,2329,4095
4966,2718,4095
4978,3034,4095
4990,3279,4095
5002,3458,4095
5014,3537,4095
5026,3477,4095
5037,3234,4095
5049,2854,4095
5061,2399,4095
5073,1975,4095
5085,1630,4095
5097,1398,4095
5108,1201,4095
5120,1019,4095
5132,881,4095
5144,847,4095
5156,894,4095
5167,1049,4095
5179,1306,4095
5191,1593,4095
5203,1917,4095
5215,2256,4095
5227,2608,4095
5238,2919,4095
5250,3214,4095
5262,3483,4095
5274,3731,4095
5286,3937,4095
5297,4095,4095
5309,4095,4095
5321,4095,4095
5333,4095,4095
5345,4095,4095
5357,4095,4095
5368,4095,4095
5380,4095,4095
5392,4095,4095
5404,4095,4095
5416,4095,4095
5428,4095,4095
5439,4095,4095
5451,4095,4095
5463,4095,4095
5475,4095,4095
5487,4095,4095
5499,4095,4095
5510,4095,4095
5522,4095,4095
5534,4095,4095
5546,4095,4095
5558,4040,4095
5570,3498,4095
5581,3108,4095
5593,2863,4095
5605,2806,4095
5617,2870,4095
5629,2946,4095
5641,3027,3985
5652,3131,3747
5664,3290,3580
5676,3522,3494
5688,3797,3491
5700,4086,3516
5711,4095,3601
5723,4095,3688
5735,4095,3747
5747,4095,3693
5759,4095,3674
5771,4095,3676
5782,4095,3675
5794,4095,3670
5806,4095,3659
5818,4095,3616
5830,4095,3574
5842,4095,3528
5853,4095,3495
5865,4095,3479
5877,4095,3465
5889,4095,3494
5901,4095,3561
5913,3932,3616
5924,3464,3639
5936,3107,3665
5948,2872,3686
5960,2772,3706
5972,2790,3730
5984,2892,3772
5995,3057,3803
6007,3255,3835
6019,3474,3876
6031,3702,3917
6043,3932,3956
6055,4095,3964
6066,4095,3991
6078,4095,4007
6090,4095,4013
6102,4095,4014
6114,4095,3998
6126,4095,3923
6137,4095,3877
6149,4095,3822
6161,4095,3811
6173,4095,3786
6185,4095,3777
6196,4095,3743
6208,4095,3715
6220,4095,3681
6232,4095,3647
6244,4095,3603
6256,4095,3581
6267,4095,3554
6279,4095,3542
6291,4095,3524
6303,4095,3530
6315,4095,3540
6327,4095,3570
6338,4095,3595
6350,4095,3628
6362,4095,3641
6374,4095,3658
6386,4095,3643
6398,4095,3627
6409,4095,3603
6421,4095,3542
6433,4095,3497
6445,4095,3448
6457,4095,3403
6469,4095,3341
6480,4095,3302
6492,4095,3283
6504,4095,3273
6516,4095,3283
6528,4095,3301
6539,4095,3315
6551,4095,3342
6563,4095,3355
6575,4095,3360
6587,4095,3361
6599,4095,3363
6610,4095,3353
6622,4095,3331
6634,4095,3305
6646,4095,3268
6658,4095,3236
6670,4095,3195
6681,4095,3170
6693,4095,3130
6705,4095,3118
6717,4095,3102
6729,4095,3105
6741,4095,3102
6752,4095,3125
6764,4095,3138
6776,4095,3168
6788,4095,3199
6800,4095,3231
6811,4095,3367
6823,3333,3449
6835,2531,3479
6847,1937,3496
6859,1519,3487
6871,1292,3468
6882,1213,3456
6894,1250,3435
6906,1384,3404
6918,1610,3395
6930,1882,3385
6942,2161,3396
6953,2432,3404
6965,2652,3419
6977,2806,3449
6989,2869,3460
7001,2884,3464
7013,2836,3472
7024,2758,3461
7036,2683,3457
7048,2623,3439
7060,2576,3433
7072,2563,3423
7084,2556,3407
7095,2529,3395
7107,2514,3388
7119,2455,3354
7131,2391,3313
7143,2353,3304
7154,2340,3283
7166,2348,3279
7178,2381,3274
7190,2429,3271
7202,2487,3288
7214,2553,3293
7225,2627,3301
7237,2733,3331
7249,2864,3334
7261,3012,3342
7273,3167,3341
7285,3362,3354
7296,3572,3352
7308,3793,3363
7320,4033,3361
7332,4095,3359
7344,4095,3356
7356,4095,3349
7367,4095,3321
7379,4095,3234
7391,4095,3169
7403,4095,3114
7415,4095,3086
7427,4095,3069
7438,4095,3058
7450,4095,3061
7462,4095,3078
7474,4095,3096
7486,4095,3133
7497,4095,3173
7509,4095,3268
7521,4095,3367
7533,4095,3451
7545,4095,3489
7557,3897,3479
7568,3710,3464
7580,3606,3413
7592,3566,3365
7604,3567,3315
7616,3602,3284
7628,3654,3248
7639,3723,3206
7651,3787,3183
7663,3862,3157
7675,3939,3140
7687,4003,3139
7699,4031,3139
7710,4073,3147
7722,4095,3156
7734,4095,3164
7746,4095,3171
7758,4095,3162
7770,4095,3152
7781,4095,3157
7793,4095,3154
7805,4095,3146
7817,4095,3136
7829,4095,3129
7840,4095,3135
7852,4095,3137
7864,4095,3159
7876,4095,3176
7888,4095,3182
7900,4095,3196
7911,4095,3200
7923,4095,3208
7935,4095,3196
7947,4095,3190
7959,4045,3182
7971,3955,3179
7982,3850,3163
7994,3773,3183
8006,3723,3181
8018,3683,3185
8030,3670,3186
8042,3641,3191
8053,3611,3193
8065,3584,3206
8077,3553,3201
8089,3520,3207
8101,3494,3206
8113,3477,3210
8124,3467,3219
8136,3464,3232
8148,3459,3250
8160,3459,3272
8172,3438,3285
8183,3413,3308
8195,3383,3318
8207,3340,3318
8219,3306,3327
8231,3271,3324
8243,3268,3321
8254,3265,3315
8266,3264,3294
8278,3270,3295
8290,3279,3278
8302,3278,3272
8314,3281,3263
8325,3273,3273
8337,3277,3267
8349,3284,3264
8361,3303,3268
8373,3318,3248
8385,3347,3244
8396,3361,3252
8408,3366,3236
8420,3378,3241
8432,3365,3248
8444,3342,3255
8456,3312,3260
8467,3294,3257
8479,3288,3267
8491,3307,3265
8503,3362,3244
8515,3418,3211
8527,3478,3199
8538,3515,3171
8550,3507,3144
8562,3480,3132
8574,3438,3130
8586,3378,3148
8597,3309,3160
8609,3229,3178
8621,3162,3191
8633,3106,3209
8645,3083,3238
8657,3054,3260
8668,3039,3264
8680,3026,3268
8692,3040,3268
8704,3041,3257
8716,3074,3246
8728,3118,3244
8739,3173,3243
8751,3230,3216
8763,3284,3202
8775,3300,3182
8787,3297,3168
8799,3288,3178
8810,3292,3179
8822,3297,3206
8834,3308,3228
8846,3303,3251
8858,3299,3259
8869,3262,3271
8881,3238,3259
8893,3224,3269
8905,3205,3259
8917,3191,3280
8929,3180,3279
8940,3175,3295
8952,3180,3297
8964,3184,3301
8976,3194,3300
8988,3204,3299
9000,3209,3297
9011,3226,3295
9023,3224,3275
9035,3214,3281
9047,3220,3267
9059,3234,3239
9071,3239,3235
9082,3261,3226
9094,3274,3238
9106,3284,3225
9118,3280,3238
9130,3273,3237
9142,3266,3242
9153,3256,3257
9165,3238,3252
9177,3201,3261
9189,3189,3266
9201,3180,3274
9212,3183,3267
9224,3172,3293
9236,3144,3288
9248,3106,3282
9260,3095,3287
9272,3098,3270
9283,3096,3265
9295,3102,3266
9307,3102,3249
9319,3098,3251
9331,3108,3248
9343,3116,3261
9354,3125,3259
9366,3124,3256
9378,3123,3239
9390,3105,3252
9402,3102,3260
9414,3082,3256
9425,3088,3254
9437,3078,3233
9449,3082,3241
9461,3082,3227
9473,3089,3244
9485,3097,3266
9496,3107,3278
9508,3123,3308
9520,3163,3334
9532,3186,3336
9544,3194,3336
9555,3205,3334
9567,3210,3329
9579,3198,3305
9591,3174,3305
9603,3167,3294
9615,3182,3282
9626,3196,3282
9638,3211,3263
9650,3218,3264
9662,3241,3259
9674,3260,3256
9686,3286,3265
9697,3295,3255
9709,3299,3237
9721,3303,3251
9733,3300,3246
9745,3288,3242
9757,3279,3239
9768,3281,3240
9780,3279,3244
9792,3268,3242
9804,3274,3231
9816,3268,3230
9828,3253,3229
9839,3231,3210
9851,3210,3212
9863,3180,3221
9875,3183,3215
9887,3165,3225
9899,3154,3219
9910,3153,3203
9922,3160,3209
9934,3150,3209
9946,3164,3208
9958,3169,3208
9969,3183,3215
9981,3188,3216
9993,3204,3208
10005,3209,3205
10017,3192,3215
10029,3174,3221
10040,3160,3235
10052,3150,3236
10064,3152,3246
10076,3151,3243
10088,3153,3244
10100,3160,3235
10111,3166,3236
10123,3177,3236
10135,3192,3218
10147,3195,3221
10159,3201,3234
10171,3216,3228
10182,3232,3228
10194,3231,3229
10206,3230,3242
10218,3212,3251
10230,3199,3275
10242,3206,3304
10253,3240,3327
10265,3275,3329
10277,3286,3334
10289,3293,3319
10301,3258,3308
10313,3223,3295
10324,3174,3268
10336,3127,3256
10348,3082,3246
10360,3046,3225
10372,3034,3209
10384,3054,3196
10395,3074,3201
10407,3097,3192
10419,3110,3193
10431,3104,3178
10443,3105,3173
10455,3117,3174
10466,3132,3177
10478,3145,3184
10490,3167,3185
10502,3174,3188
10514,3192,3205
10526,3217,3200
10537,3237,3220
10549,3263,3213
10561,3258,3220
10573,3257,3211
10585,3242,3212
10597,3231,3205
10608,3206,3209
10620,3210,3190
10632,3191,3194
10644,3177,3194
10656,3177,3193
10668,3190,3190
10679,3196,3186
10691,3205,3192
10703,3226,3192
10715,3245,3190
10727,3258,3176
10739,3285,3197
10750,3302,3194
10762,3291,3189
10774,3284,3208
10786,3259,3209
10798,3254,3201
10810,3239,3210
10821,3233,3207
10833,3216,3204
10845,3195,3203
10857,3178,3209
10869,3149,3200
10881,3115,3192
10892,3092,3210
10904,3079,3205
10916,3075,3212
10928,3080,3208
10940,3094,3210
10952,3122,3227
10963,3152,3228
10975,3164,3229
10987,3193,3242
10999,3223,3273
11011,3265,3291
11023,3282,3280
11034,3280,3294
11046,3255,3282
11058,3206,3270
11070,3160,3261
11082,3115,3258
11094,3113,3236
11105,3093,3222
11117,3078,3210
11129,3051,3208
11141,3027,3200
11153,3017,3187
11165,3002,3185
11176,3006,3181
11188,3009,3184
11200,3005,3173
11212,3001,3178
11224,3026,3180
11236,3032,3194
11247,3047,3194
11259,3070,3201
11271,3104,3216
11283,3104,3218
11295,3093,3234
11307,3082,3245
11318,3078,3257
11330,3064,3278
11342,3040,3290
11354,3018,3321
11366,2986,3330
11378,2962,3368
11389,2951,3385
11401,2943,3381
11413,2961,3378
11425,2979,3372
11437,2998,3355
11449,3022,3340
11460,3059,3319
11472,3079,3310
11484,3088,3304
11496,3093,3294
11508,3111,3292
11520,3121,3290
11531,3126,3278
11543,3130,3283
11555,3142,3269
11567,3149,3274
11579,3154,3267
11591,3155,3261
11602,3143,3255
11614,3148,3242
11626,3134,3238
11638,3145,3233
11650,3150,3248
11662,3147,3253
11673,3141,3249
11685,3142,3267
11697,3166,3281
11709,3181,3277
11721,3216,3298
11733,3239,3292
11744,3255,3294
11756,3236,3284
11768,3215,3275
11780,3199,3243
11792,3199,3221
11804,3197,3210
11815,3187,3192
11827,3187,3183
11839,3160,3181
11851,3134,3178
11863,3123,3165
11875,3113,3168
11886,3115,3166
11898,3132,3187
11910,3146,3198
11922,3149,3191
11934,3149,3210
11946,3149,3214
11957,3143,3222
11969,3141,3221
11981,3137,3218
11993,3137,3242
12005,3145,3232
12017,3155,3240
12028,3167,3240
12040,3188,3222
12052,3192,3232
12064,3198,3226
12076,3205,3224
12088,3208,3217
12099,3210,3226
12111,3206,3228
12123,3192,3243
12135,3177,3239
12147,3186,3245
12159,3187,3261
12170,3183,3266
12182,3170,3270
12194,3172,3285
12206,3173,3281
12218,3182,3285
12230,3182,3265
12241,3184,3269
12253,3197,3268
12265,3187,3253
12277,3168,3253
12289,3156,3261
12301,3144,3262
12312,3149,3254
12324,3161,3259
12336,3177,3253
12348,3192,3266
12360,3210,3279
12372,3227,3299
12383,3255,3302
12395,3259,3312
12407,3266,3310
12419,3249,3309
12431,3223,3305
12443,3200,3290
12454,3171,3273
12466,3133,3258
12478,3101,3237
12490,3076,3226
12502,3061,3210
12514,3042,3201
12525,3030,3201
12537,3017,3199
12549,3013,3188
12561,3014,3179
12573,3029,3184
12585,3049,3198
12596,3054,3194
12608,3070,3194
12620,3089,3225
12632,3114,3240
12644,3146,3249
12655,3171,3259
12667,3215,3281
12679,3226,3292
12691,3230,3291
12703,3238,3288
12715,3240,3284
12726,3245,3284
12738,3259,3269
12750,3259,3260
12762,3249,3238
12774,3224,3220
12786,3212,3211
12797,3203,3222
12809,3185,3212
12821,3162,3220
12833,3152,3228
12845,3146,3223
12857,3160,3234
12868,3168,3238
12880,3180,3244
12892,3181,3251
12904,3190,3248
12916,3190,3253
12928,3195,3246
12939,3196,3242
12951,3190,3242
12963,3189,3250
12975,3181,3244
12987,3188,3245
12999,3183,3236
13010,3184,3226
13022,3192,3234
13034,3182,3228
13046,3170,3233
13058,3158,3232
13070,3154,3243
13081,3183,3243
13093,3213,3245
13105,3245,3250
13117,3265,3222
13129,3258,3217
13141,3243,3207
13152,3229,3195
13164,3215,3204
13176,3192,3222
13188,3186,3220
13200,3164,3226
13212,3145,3208
13223,3141,3208
13235,3131,3199
13247,3137,3202
13259,3149,3197
13271,3154,3184
13283,3155,3176
13294,3156,3172
13306,3153,3174
13318,3160,3163
13330,3153,3175
13342,3145,3182
13354,3144,3191
13365,3132,3188
13377,3130,3195
13389,3119,3212
13401,3130,3200
13413,3148,3206
13425,3172,3203
13436,3183,3214
13448,3197,3207
13460,3211,3209
13472,3204,3200
13484,3209,3198
13496,3196,3193
13507,3162,3188
13519,3142,3184
13531,3125,3184
13543,3123,3187
13555,3117,3191
13567,3122,3194
13578,3118,3206
13590,3128,3206
13602,3131,3212
13614,3126,3215
13626,3118,3207
13638,3111,3212
13649,3120,3206
13661,3126,3195
13673,3149,3211
13685,3169,3228
13697,3181,3228
13709,3169,3243
13720,3169,3251
13732,3182,3253
13744,3179,3256
13756,3183,3257
13768,3171,3253
13779,3171,3273
13791,3160,3271
13803,3175,3271
13815,3208,3279
13827,3245,3268
13839,3275,3252
13850,3306,3236
13862,3317,3223
13874,3300,3215
13886,3282,3190
13898,3248,3180
13910,3221,3158
13921,3185,3160
13933,3164,3157
13945,3149,3176
13957,3169,3184
13969,3180,3191
13981,3203,3210
13992,3216,3214
14004,3207,3223
14016,3190,3214
14028,3179,3195
14040,3175,3183
14052,3171,3181
14063,3172,3155
14075,3170,3138
14087,3182,3140
14099,3193,3112
14111,3212,3106
14123,3213,3102
14134,3218,3090
14146,3217,3071
14158,3212,3075
14170,3217,3073
14182,3223,3079
14194,3211,3091
14205,3204,3088
14217,3187,3082
14229,3167,3082
14241,3167,3073
14253,3157,3057
14265,3160,3039
14276,3143,3038
14288,3146,3031
14300,3149,3032
14312,3166,3027
14324,3159,3033
14336,3144,3039
14347,3117,3053
14359,3110,3071
14371,3084,3080
14383,3054,3096
14395,3028,3117
14407,3017,3129
14418,2995,3137
14430,2983,3137
14442,2978,3148
14454,2983,3151
14466,2990,3161
14478,2999,3153
14489,3016,3153
14501,3047,3150
14513,3063,3147
14525,3084,3159
14537,3099,3162
14549,3151,3193
14560,3201,3208
14572,3264,3230
14584,3321,3252
14596,3370,3248
14608,3405,3246
14620,3417,3246
14631,3385,3230
14643,3345,3222
14655,3295,3204
14667,3255,3188
14679,3205,3182
14691,3175,3172
14702,3167,3172
14714,3179,3160
14726,3195,3168
14738,3208,3168
14750,3218,3168
14762,3247,3158
14773,3261,3163
14785,3272,3158
14797,3291,3158
14809,3304,3154
14821,3316,3161
14833,3329,3171
14844,3334,3178
14856,3325,3179
14868,3312,3177
14880,3284,3159
14892,3269,3171
14904,3228,3171
14915,3183,3180
14927,3125,3166
14939,3095,3170
14951,3062,3169
14963,3048,3166
14975,3047,3185
14986,3059,3168
14998,3068,3172
15010,3074,3169
15022,3070,3157
15034,3079,3149
15046,3080,3132
15057,3073,3115
15069,3070,3092
15081,3077,3067
15093,3121,3047
15105,3145,3028
15116,3188,3031
15128,3216,3037
15140,3243,3063
15152,3262,3072
15164,3273,3086
15176,3280,3098
15188,3284,3117
15199,3279,3140
15211,3267,3143
15223,3256,3150
15235,3256,3154
15247,3257,3160
15259,3248,3144
15270,3237,3153
15282,3225,3161
15294,3235,3183
15306,3245,3207
15318,3260,3247
15329,3294,3259
15341,3334,3284
15353,3379,3283
15365,3418,3292
15377,3449,3287
15389,3448,3267
15400,3422,3268
15412,3379,3256
15424,3313,3250
15436,3245,3237
15448,3197,3227
15460,3154,3216
15471,3133,3210
15483,3110,3197
15495,3101,3194
15507,3095,3201
15519,3082,3202
15531,3074,3194
15542,3073,3209
15554,3072,3211
15566,3076,3209
15578,3074,3221
15590,3073,3233
15602,3076,3233
15614,3091,3231
15625,3085,3235
15637,3077,3236
15649,3080,3235
15661,3080,3230
15673,3077,3229
15684,3083,3225
15696,3106,3231
15708,3123,3230
15720,3130,3225
15732,3156,3201
15744,3188,3181
15755,3222,3160
15767,3247,3147
15779,3269,3146
15791,3255,3135
15803,3241,3144
15815,3222,3164
15826,3195,3170
15838,3165,3172
15850,3145,3189
15862,3129,3194
15874,3107,3208
15886,3100,3208
15897,3103,3217
15909,3097,3209
15921,3092,3209
15933,3092,3216
15945,3095,3204
15957,3104,3188
15968,3131,3186
15980,3166,3186
15992,3179,3180
16004,3197,3178
16016,3201,3174
16028,3230,3185
16039,3250,3170
16051,3290,3200
16063,3334,3213
16075,3388,3234
16087,3434,3254
16099,3478,3274
16110,3507,3276
16122,3515,3285
16134,3493,3278
16146,3454,3267
16158,3403,3244
16170,3337,3249
16181,3276,3252
16193,3215,3223
16205,3172,3223
16217,3135,3219
16229,3097,3208
16241,3069,3206
16252,3064,3201
16264,3058,3212
16276,3054,3209
16288,3074,3214
16300,3111,3220
16312,3136,3225
16323,3152,3215
16335,3175,3211
16347,3194,3208
16359,3222,3209
16371,3236,3203
16383,3247,3200
16394,3257,3207
16406,3267,3197
16418,3263,3205
16430,3266,3199
16442,3250,3202
16454,3226,3213
16465,3202,3206
16477,3192,3190
16489,3172,3187
16501,3171,3184
16513,3167,3190
16525,3169,3185
16536,3178,3175
16548,3189,3182
16560,3185,3187
16572,3196,3193
16584,3201,3198
16596,3201,3189
16607,3201,3201
16619,3195,3194
16631,3190,3197
16643,3197,3197
16655,3187,3187
16667,3200,3200
16678,3216,3181
16690,3239,3191
16702,3246,3196
16714,3251,3206
16726,3241,3213
16738,3228,3204
16750,3222,3213
16761,3214,3222
16773,3203,3228
16785,3211,3249
16797,3233,3265
16809,3270,3279
16821,3320,3287
16832,3370,3307
16844,3417,3314
16856,3424,3303
16868,3409,3293
16880,3373,3289
16892,3311,3266
16903,3258,3254
16915,3206,3239
16927,3168,3215
16939,3144,3209
16951,3119,3212
16963,3109,3201
16974,3089,3206
16986,3085,3194
16998,3064,3205
17010,3083,3192
17022,3085,3196
17034,3100,3200
17045,3104,3190
17057,3126,3208
17069,3137,3215
17081,3148,3217
17093,3150,3224
17105,3162,3223
17116,3168,3231
17128,3169,3218
17140,3175,3215
17152,3188,3211
17164,3179,3215
17176,3168,3213
17187,3161,3218
17199,3162,3219
17211,3156,3221
17223,3147,3228
17235,3150,3245
17247,3154,3237
17258,3156,3236
17270,3171,3241
17282,3187,3223
17294,3209,3223
17306,3221,3237
17318,3226,3231
17329,3228,3232
17341,3216,3226
17353,3200,3232
17365,3170,3220
17377,3145,3226
17389,3141,3226
17400,3153,3221
17412,3165,3226
17424,3174,3238
17436,3186,3239
17448,3209,3246
17460,3238,3274
17471,3255,3275
17483,3273,3287
17495,3272,3298
17507,3297,3312
17519,3327,3335
17531,3358,3314
17542,3361,3313
17554,3366,3316
17566,3344,3312
17578,3319,3300
17590,3281,3288
17602,3224,3270
17613,3183,3248
17625,3156,3221
17637,3124,3216
17649,3116,3215
17661,3100,3197
17673,3104,3199
17684,3112,3202
17696,3102,3195
17708,3116,3215
17720,3119,3210
17732,3129,3209
17744,3131,3210
17756,3118,3213
17767,3119,3227
17779,3116,3229
17791,3126,3239
17803,3127,3245
17815,3139,3249
17827,3164,3253
17838,3179,3255
17850,3189,3261
17862,3189,3264
17874,3193,3255
17886,3181,3246
17898,3184,3249
17909,3177,3248
17921,3188,3254
17933,3192,3261
17945,3204,3256
17957,3195,3271
17969,3190,3282
17980,3162,3305
17992,3159,3306
18004,3155,3325
18016,3172,3348
18028,3176,3351
18040,3161,3346
18051,3160,3311
18063,3175,3294
18075,3187,3262
18087,3198,3236
18099,3208,3209
18111,3204,3201
18122,3186,3198
18134,3172,3201
18146,3176,3222
18158,3195,3249
18170,3219,3267
18182,3228,3267
18193,3255,3270
18205,3280,3272
18217,3298,3286
18229,3289,3268
18241,3263,3258
18253,3236,3250
18264,3208,3237
18276,3184,3239
18288,3170,3223
18300,3160,3217
18312,3155,3216
18324,3153,3206
18335,3143,3203
18347,3155,3195
18359,3159,3193
18371,3156,3207
18383,3150,3209
18395,3158,3213
18406,3180,3220
18418,3180,3221
18430,3192,3239
18442,3193,3234
18454,3183,3244
18466,3201,3246
18477,3187,3232
18489,3172,3237
18501,3166,3248
18513,3161,3244
18525,3151,3254
18537,3155,3252
18548,3157,3235
18560,3157,3226
18572,3163,3220
18584,3162,3223
18596,3164,3216
18608,3168,3213
18619,3174,3215
18631,3183,3222
18643,3190,3223
18655,3191,3231
18667,3189,3228
18679,3197,3226
18690,3184,3238
18702,3176,3237
18714,3167,3242
18726,3155,3245
18738,3154,3252
18750,3159,3256
18761,3164,3265
18773,3185,3280
18785,3218,3289
18797,3266,3299
18809,3298,3288
18821,3332,3281
18832,3354,3278
18844,3351,3262
18856,3343,3264
18868,3326,3244
18880,3283,3238
18892,3260,3232
18903,3202,3229
18915,3155,3212
18927,3112,3206
18939,3091,3208
18951,3078,3194
18963,3066,3194
18974,3072,3192
18986,3073,3179
18998,3063,3190
19010,3062,3186
19022,3068,3194
19034,3084,3194
19045,3092,3204
19057,3102,3204
19069,3126,3223
19081,3135,3224
19093,3146,3225
19105,3145,3225
19116,3139,3214
19128,3143,3234
19140,3148,3240
19152,3149,3240
19164,3165,3233
19176,3167,3226
19187,3171,3222
19199,3177,3219
19211,3189,3233
19223,3197,3238
19235,3194,3227
19247,3184,3213
19258,3173,3203
19270,3174,3207
19282,3175,3200
19294,3192,3208
19306,3178,3219
19318,3169,3225
19329,3154,3226
19341,3155,3233
19353,3151,3240
19365,3158,3236
19377,3169,3240
19389,3181,3236
19400,3197,3240
19412,3224,3265
19424,3253,3280
19436,3296,3293
19448,3326,3303
19460,3349,3299
19471,3357,3289
19483,3326,3281
19495,3262,3273
19507,3219,3272
19519,3167,3243
19531,3124,3231
19542,3096,3213
19554,3092,3207
19566,3109,3214
19578,3130,3193
19590,3154,3199
19602,3167,3200
19613,3182,3200
19625,3193,3199
19637,3194,3194
19649,3200,3203
19661,3185,3181
19673,3186,3203
19684,3185,3199
19696,3178,3196
19708,3173,3212
19720,3168,3204
19732,3163,3208
19744,3156,3208
19755,3143,3204
19767,3152,3195
19779,3163,3193
19791,3191,3178
19803,3199,3192
19815,3222,3195
19826,3231,3180
19838,3229,3194
19850,3218,3197
19862,3215,3181
19874,3213,3210
19886,3203,3207
19897,3169,3203
19909,3159,3214
19921,3161,3208
19933,3157,3209
19945,3137,3215
19957,3135,3220
19968,3140,3221
19980,3153,3229
19992,3165,3208
20004,3184,3215
20016,3216,3208
20028,3217,3206
20039,3240,3226
20051,3274,3234
20063,3298,3241
20075,3319,3248
20087,3342,3234
20099,3355,3233
20110,3357,3244
20122,3330,3229
20134,3310,3231
20146,3292,3206
20158,3273,3197
20170,3250,3180
20181,3233,3179
20193,3206,3165
20205,3190,3162
20217,3174,3162
20229,3167,3164
20241,3165,3189
20252,3153,3183
20264,3142,3197
20276,3124,3199
20288,3128,3215
20300,3117,3221
20312,3105,3221
20323,3101,3231
20335,3112,3234
20347,3125,3236
20359,3160,3249
20371,3190,3246
20383,3200,3241
20394,3224,3225
20406,3231,3211
20418,3242,3192
20430,3255,3198
20442,3255,3176
20454,3235,3186
20465,3238,3174
20477,3234,3174
20489,3230,3162
20501,3231,3168
20513,3216,3167
20525,3210,3169
20536,3198,3179
20548,3207,3187
20560,3192,3195
20572,3202,3197
20584,3213,3212
20596,3216,3219
20607,3225,3223
20619,3235,3228
20631,3258,3227
20643,3255,3223
20655,3258,3223
20667,3246,3221
20678,3263,3241
20690,3299,3240
20702,3350,3256
20714,3391,3266
20726,3433,3256
20738,3466,3237
20749,3457,3231
20761,3451,3219
20773,3412,3205
20785,3361,3207
20797,3314,3190
20809,3258,3188
20820,3205,3184
20832,3178,3175
20844,3146,3170
20856,3126,3180
20868,3109,3180
20880,3100,3178
20891,3096,3201
20903,3094,3188
20915,3108,3201
20927,3117,3205
20939,3121,3205
20951,3128,3212
20962,3118,3206
20974,3132,3208
20986,3142,3213
20998,3168,3217
21010,3185,3200
21022,3211,3198
21033,3243,3179
21045,3250,3189
21057,3249,3175
21069,3264,3164
21081,3248,3170
21093,3228,3165
21104,3216,3159
21116,3202,3168
21128,3190,3174
21140,3180,3167
21152,3185,3174
21164,3194,3183
21175,3194,3209
21187,3199,3209
21199,3199,3222
21211,3189,3231
21223,3202,3229
21235,3206,3236
21246,3205,3243
21258,3190,3226
21270,3199,3225
21282,3217,3222
21294,3232,3211
21306,3240,3183
21317,3245,3189
21329,3234,3189
21341,3222,3196
21353,3251,3217
21365,3277,3210
21377,3315,3213
21388,3349,3208
21400,3368,3201
21412,3369,3183
21424,3371,3185
21436,3362,3184
21448,3349,3183
21459,3331,3196
21471,3281,3197
21483,3238,3203
21495,3202,3201
21507,3177,3207
21519,3171,3203
21530,3160,3199
21542,3162,3187
21554,3159,3179
21566,3159,3171
21578,3172,3166
21590,3165,3162
21601,3173,3160
21613,3190,3178
21625,3206,3186
21637,3239,3191
21649,3266,3194
21661,3313,3198
21672,3336,3205
21684,3359,3201
21696,3365,3196
21708,3363,3201
21720,3325,3209
21732,3299,3213
21743,3239,3221
21755,3194,3231
21767,3154,3235
21779,3127,3239
21791,3118,3240
21803,3112,3248
21814,3114,3246
21826,3134,3246
21838,3157,3250
21850,3152,3245
21862,3157,3249
21874,3165,3244
21885,3162,3247
21897,3158,3232
21909,3158,3221
21921,3150,3209
21933,3153,3188
21945,3157,3179
21956,3169,3158
21968,3184,3159
21980,3201,3152
21992,3198,3155
22004,3189,3170
22016,3201,3186
22027,3240,3206
22039,3301,3225
22051,3347,3226
22063,3394,3227
22075,3444,3232
22087,3476,3241
22099,3473,3241
22110,3454,3247
22122,3411,3251
22134,3353,3252
22146,3298,3251
22158,3256,3254
22170,3189,3252
22181,3134,3249
22193,3089,3241
22205,3066,3233
22217,3043,3223
22229,3023,3200
22241,3031,3196
22252,3041,3177
22264,3063,3175
22276,3083,3177
22288,3111,3174
22300,3122,3170
22312,3144,3159
22323,3155,3160
22335,3175,3166
22347,3196,3178
22359,3217,3194
22371,3231,3188
22383,3250,3196
22394,3259,3196
22406,3263,3191
22418,3256,3195
22430,3234,3187
22442,3214,3189
22454,3194,3184
22465,3174,3185
22477,3160,3189
22489,3166,3186
22501,3180,3182
22513,3210,3186
22525,3227,3181
22536,3264,3183
22548,3292,3181
22560,3321,3180
22572,3329,3183
22584,3321,3191
22596,3313,3180
22607,3294,3180
22619,3259,3185
22631,3248,3194
22643,3228,3207
22655,3220,3207
22667,3198,3209
22678,3181,3234
22690,3185,3231
22702,3211,3248
22714,3245,3249
22726,3269,3272
22738,3285,3289
22749,3300,3289
22761,3314,3282
22773,3308,3285
22785,3273,3288
22797,3242,3270
22809,3193,3262
22820,3154,3230
22832,3126,3225
22844,3112,3209
22856,3109,3212
22868,3124,3214
22880,3130,3203
22891,3136,3192
22903,3133,3182
22915,3123,3170
22927,3111,3175
22939,3117,3165
22951,3128,3181
22962,3150,3179
22974,3166,3184
22986,3178,3182
22998,3187,3185
23010,3214,3191
23022,3212,3191
23033,3215,3189
23045,3210,3190
23057,3205,3198
23069,3205,3199
23081,3206,3208
23093,3224,3226
23104,3233,3226
23116,3245,3220
23128,3243,3215
23140,3249,3209
23152,3235,3204
23164,3222,3216
23175,3220,3231
23187,3214,3220
23199,3212,3228
23211,3221,3231
23223,3220,3212
23235,3198,3211
23246,3184,3218
23258,3150,3206
23270,3130,3207
23282,3108,3221
23294,3108,3245
23306,3093,3260
23317,3094,3284
23329,3093,3285
23341,3111,3280
23353,3160,3283
23365,3204,3287
23377,3243,3279
23388,3264,3282
23400,3260,3280
23412,3240,3253
23424,3189,3262
23436,3154,3242
23448,3117,3219
23459,3088,3181
23471,3105,3174
23483,3124,3169
23495,3153,3159
23507,3165,3147
23519,3179,3145
23530,3182,3140
23542,3172,3147
23554,3155,3159
23566,3146,3173
23578,3120,3181
23590,3110,3198
23601,3097,3211
23613,3098,3216
23625,3122,3233
23637,3176,3236
23649,3221,3247
23661,3247,3228
23672,3262,3224
23684,3254,3209
23696,3248,3220
23708,3226,3207
23720,3211,3210
23732,3183,3203
23743,3182,3202
23755,3197,3201
23767,3215,3199
23779,3216,3194
23791,3208,3204
23803,3203,3206
23814,3192,3201
23826,3185,3212
23838,3197,3213
23850,3190,3214
23862,3201,3222
23874,3210,3226
23885,3186,3226
23897,3165,3224
23909,3152,3226
23921,3163,3224
23933,3161,3216
23945,3162,3212
23956,3161,3214
23968,3175,3218
23980,3188,3220
23992,3214,3236
24004,3266,3247
24016,3324,3248
24027,3375,3244
24039,3426,3255
24051,3461,3237
24063,3489,3233
24075,3480,3221
24087,3451,3205
24098,3431,3210
24110,3404,3189
24122,3345,3178
24134,3285,3172
24146,3223,3165
24158,3194,3170
24169,3177,3173
24181,3162,3179
24193,3160,3192
24205,3164,3199
24217,3151,3195
24229,3147,3198
24240,3146,3212
24252,3137,3189
24264,3152,3207
24276,3183,3203
24288,3188,3197
24300,3192,3203
24311,3203,3209
24323,3215,3213
24335,3216,3209
24347,3200,3218
24359,3200,3221
24371,3207,3220
24382,3193,3223
24394,3206,3218
24406,3204,3220
24418,3188,3211
24430,3186,3206
24442,3186,3193
24453,3176,3184
24465,3183,3192
24477,3174,3201
24489,3187,3182
24501,3197,3182
24513,3205,3177
24524,3219,3174
24536,3212,3175
24548,3203,3174
24560,3184,3180
24572,3169,3182
24584,3160,3188
24595,3162,3191
24607,3172,3195
24619,3186,3200
24631,3192,3207
24643,3185,3197
24655,3179,3206
24666,3170,3208
24678,3179,3210
24690,3210,3231
24702,3285,3231
24714,3345,3236
24726,3398,3218
24737,3419,3224
24749,3419,3210
24761,3397,3206
24773,3369,3203
24785,3317,3206
24797,3251,3192
24808,3194,3184
24820,3141,3163
24832,3111,3162
24844,3096,3165
24856,3080,3162
24868,3088,3158
24879,3100,3169
24891,3112,3175
24903,3136,3184
24915,3154,3186
24927,3172,3206
24939,3185,3207
24950,3207,3211
24962,3206,3215
24974,3201,3211
24986,3180,3213
24998,3161,3205
25010,3154,3213
25021,3152,3203
25033,3140,3207
25045,3155,3206
25057,3170,3200
25069,3183,3204
25081,3196,3193
25092,3189,3203
25104,3183,3195
25116,3182,3202
25128,3169,3193
25140,3167,3190
25152,3153,3199
25163,3147,3210
25175,3141,3194
25187,3144,3202
25199,3139,3212
25211,3142,3210
25223,3136,3206
25234,3155,3212
25246,3148,3197
25258,3162,3197
25270,3173,3184
25282,3171,3185
25294,3177,3193
25305,3177,3186
25317,3180,3193
25329,3187,3206
25341,3201,3213
25353,3208,3221
25365,3207,3221
25376,3215,3222
25388,3223,3244
25400,3235,3252
25412,3279,3260
25424,3332,3266
25436,3375,3263
25447,3417,3253
25459,3433,3252
25471,3443,3231
25483,3440,3220
25495,3400,3208
25507,3362,3205
25518,3301,3191
25530,3264,3176
25542,3226,3175
25554,3206,3161
25566,3174,3160
25578,3143,3165
25589,3131,3174
25601,3133,3180
25613,3125,3193
25625,3135,3189
25637,3127,3190
25649,3115,3187
25660,3112,3186
25672,3111,3184
25684,3120,3178
25696,3136,3194
25708,3144,3194
25720,3161,3209
25731,3161,3211
25743,3165,3204
25755,3171,3221
25767,3171,3214
25779,3161,3222
25791,3134,3216
25802,3118,3210
25814,3102,3214
25826,3089,3211
25838,3097,3233
25850,3107,3215
25862,3118,3218
25873,3109,3206
25885,3113,3199
25897,3126,3193
25909,3128,3193
25921,3153,3186
25933,3171,3194
25944,3186,3200
25956,3198,3196
25968,3185,3203
25980,3180,3230
25992,3157,3244
26004,3132,3226
26015,3109,3237
26027,3105,3228
26039,3094,3222
26051,3101,3212
26063,3108,3211
26075,3129,3207
26086,3147,3212
26098,3171,3223
26110,3193,3229
26122,3226,3239
26134,3240,3239
26146,3265,3254
26157,3286,3262
26169,3316,3263
26181,3356,3249
26193,3399,3245
26205,3423,3248
26217,3431,3241
26228,3406,3218
26240,3357,3207
26252,3296,3196
26264,3239,3165
26276,3205,3163
26288,3168,3143
26299,3142,3137
26311,3143,3140
26323,3157,3118
26335,3194,3118
26347,3238,3127
26359,3282,3115
26370,3317,3120
26382,3326,3136
26394,3326,3158
26406,3317,3182
26418,3288,3206
26430,3247,3225
26441,3207,3226
26453,3170,3242
26465,3142,3264
26477,3130,3258
26489,3096,3269
26501,3086,3257
26512,3067,3237
26524,3051,3243
26536,3033,3217
26548,3016,3220
26560,2991,3197
26572,2990,3186
26584,3003,3180
26595,3021,3169
26607,3047,3161
26619,3049,3151
26631,3059,3142
26643,3050,3157
26655,3046,3158
26666,3042,3158
26678,3048,3170
26690,3050,3165
26702,3064,3171
26714,3071,3188
26726,3087,3197
26737,3075,3217
26749,3061,3221
26761,3048,3240
26773,3064,3245
26785,3061,3252
26797,3072,3250
26808,3085,3236
26820,3100,3236
26832,3099,3226
26844,3107,3203
26856,3108,3192
26868,3120,3172
26879,3155,3182
26891,3196,3190
26903,3245,3212
26915,3304,3231
26927,3349,3243
26939,3394,3252
26950,3416,3266
26962,3409,3273
26974,3390,3283
26986,3356,3285
26998,3313,3272
27010,3279,3259
27021,3234,3246
27033,3217,3224
27045,3205,3225
27057,3203,3205
27069,3214,3213
27081,3224,3215
27092,3225,3207
27104,3233,3220
27116,3235,3202
27128,3246,3192
27140,3242,3187
27152,3237,3138
27163,3224,3096
27175,3204,3066
27187,3172,3051
27199,3140,3041
27211,3099,3048
27223,3043,3077
27234,2997,3093
27246,2956,3093
27258,2925,3114
27270,2916,3139
27282,2914,3158
27294,2936,3174
27305,2968,3186
27317,3008,3191
27329,3067,3200
27341,3098,3200
27353,3153,3196
27365,3190,3194
27376,3230,3195
27388,3274,3178
27400,3329,3168
27412,3350,3162
27424,3371,3147
27436,3384,3136
27447,3369,3120
27459,3346,3113
27471,3320,3115
27483,3283,3115
27495,3265,3125
27507,3263,3145
27518,3251,3153
27530,3223,3179
27542,3200,3192
27554,3193,3215
27566,3187,3215
27578,3179,3234
27589,3183,3256
27601,3197,3277
27613,3236,3298
27625,3294,3310
27637,3326,3326
27649,3343,3323
27660,3346,3314
27672,3339,3305
27684,3324,3316
27696,3316,3296
27708,3291,3291
27720,3266,3271
27731,3252,3267
27743,3236,3244
27755,3231,3242
27767,3216,3224
27779,3203,3216
27791,3186,3205
27802,3177,3210
27814,3177,3212
27826,3166,3227
27838,3155,3241
27850,3158,3234
27862,3158,3243
27873,3154,3248
27885,3164,3254
27897,3163,3273
27909,3158,3274
27921,3144,3288
27933,3149,3274
27944,3145,3273
27956,3150,3285
27968,3156,3273
27980,3165,3270
27992,3162,3267
28004,3160,3257
28015,3156,3246
28027,3160,3225
28039,3185,3229
28051,3192,3212
28063,3213,3201
28075,3214,3215
28086,3203,3208
28098,3208,3214
28110,3196,3209
28122,3181,3216
28134,3179,3221
28146,3186,3220
28157,3188,3227
28169,3199,3217
28181,3219,3219
28193,3233,3227
28205,3240,3228
28217,3255,3217
28228,3258,3219
28240,3260,3204
28252,3278,3204
28264,3273,3205
28276,3280,3211
28288,3290,3244
28299,3346,3247
28311,3404,3271
28323,3466,3269
28335,3503,3280
28347,3516,3278
28359,3518,3259
28370,3495,3249
28382,3448,3248
28394,3392,3241
28406,3332,3237
28418,3266,3233
28430,3226,3242
28441,3187,3244
28453,3175,3244
28465,3150,3245
28477,3147,3240
28489,3129,3234
28501,3105,3234
28512,3088,3242
28524,3068,3248
28536,3064,3251
28548,3048,3246
28560,3029,3246
28572,3042,3247
28584,3052,3230
28595,3074,3222
28607,3098,3219
28619,3112,3217
28631,3137,3200
28643,3161,3200
28655,3190,3185
28666,3212,3182
28678,3211,3179
28690,3204,3178
28702,3177,3176
28714,3148,3182
28726,3125,3187
28737,3102,3192
28749,3091,3199
28761,3075,3199
28773,3060,3199
28785,3055,3191
28797,3080,3196
28808,3094,3205
28820,3115,3191
28832,3120,3186
28844,3123,3192
28856,3127,3179
28868,3120,3199
28879,3104,3182
28891,3102,3192
28903,3120,3206
28915,3139,3206
28927,3164,3201
28939,3159,3204
28950,3161,3209
28962,3172,3197
28974,3175,3205
28986,3199,3203
28998,3243,3213
29010,3306,3229
29021,3376,3243
29033,3424,3251
29045,3449,3259
29057,3456,3262
29069,3446,3262
29081,3430,3262
29092,3390,3238
29104,3354,3227
29116,3321,3202
29128,3282,3191
29140,3262,3178
29152,3228,3171
29163,3208,3191
29175,3200,3170
29187,3183,3181
29199,3168,3178
29211,3164,3183
29223,3164,3207
29234,3151,3206
29246,3140,3199
29258,3135,3194
29270,3120,3201
29282,3108,3196
29294,3110,3197
29305,3118,3210
29317,3145,3212
29329,3157,3214
29341,3171,3232
29353,3178,3235
29365,3168,3232
29376,3167,3240
29388,3162,3236
29400,3146,3242
29412,3134,3235
29424,3129,3232
29436,3136,3217
29447,3140,3219
29459,3138,3217
29471,3151,3201
29483,3154,3207
29495,3172,3218
29507,3162,3211
29518,3164,3233
29530,3177,3230
29542,3173,3234
29554,3163,3227
29566,3164,3227
29578,3156,3232
29589,3168,3237
29601,3168,3231
29613,3158,3241
29625,3171,3237
29637,3174,3244
29649,3198,3242
29660,3194,3233
29672,3185,3235
29684,3181,3226
29696,3177,3235
29708,3162,3233
29720,3175,3222
29731,3186,3222
29743,3196,3227
29755,3213,3231
29767,3263,3256
29779,3323,3266
29791,3366,3281
29802,3406,3296
29814,3426,3289
29826,3418,3280
29838,3388,3285
29850,3343,3271
29862,3295,3258
29873,3258,3254
29885,3222,3238
29897,3185,3218
29909,3153,3209
29921,3136,3223
29933,3118,3225
29944,3119,3216
29956,3124,3227
29968,3137,3217
29980,3146,3215
29992,3157,3213
