timestamp_ms,ppg1,ppg2
0,2055,1771
12,2138,2051
24,2241,2341
35,2352,2597
47,2478,2801
59,2605,2893
71,2730,2851
83,2843,2677
95,2914,2390
106,2928,2066
118,2894,1739
130,2807,1457
142,2696,1220
154,2571,1067
165,2423,954
177,2261,887
189,2100,859
201,1938,817
213,1798,770
225,1669,698
236,1587,603
248,1533,485
260,1506,397
272,1499,350
284,1512,347
295,1532,404
307,1577,509
319,1614,630
331,1664,758
343,1717,847
354,1788,875
366,1861,804
378,1918,642
390,1967,437
402,2004,236
413,2001,45
425,2005,22
437,2006,25
449,2017,25
461,2018,25
472,2042,22
484,2054,25
496,2065,25
508,2064,24
520,2060,28
532,2058,29
543,2053,23
555,2055,25
567,2059,23
579,2050,20
591,2061,25
602,2064,24
614,2081,26
626,2086,21
638,2104,311
650,2104,825
661,2102,1313
673,2095,1739
685,2091,2104
697,2082,2371
709,2071,2551
720,2074,2631
732,2060,2639
744,2057,2577
756,2026,2478
768,2005,2346
780,1982,2211
791,1950,2081
803,1940,1970
815,1921,1903
827,1906,1868
839,1881,1854
851,1858,1875
862,1835,1904
874,1810,1931
886,1787,1960
898,1783,1982
910,1789,1995
921,1798,2008
933,1835,2018
945,1881,2024
957,1923,2044
969,1951,2044
981,1945,2037
992,1916,1990
1004,1849,1919
1016,1763,1814
1028,1673,1692
1040,1571,1572
1052,1484,1447
1063,1387,1326
1075,1314,1229
1087,1266,1149
1099,1256,1094
1111,1276,1056
1122,1327,1043
1134,1400,1052
1146,1486,1078
1158,1593,1131
1170,1702,1204
1181,1820,1276
1193,1937,1367
1205,2057,1470
1217,2163,1561
1229,2250,1647
1241,2329,1716
1252,2388,1795
1264,2414,1854
1276,2419,1897
1288,2393,1941
1300,2346,1971
1312,2307,1988
1323,2267,2003
1335,2214,2009
1347,2152,2013
1359,2086,2023
1371,2029,2032
1382,1970,2047
1394,1942,2048
1406,1937,2056
1418,1929,2056
1430,1938,2061
1442,1949,2076
1453,1968,2084
1465,1990,2089
1477,2013,2081
1489,2038,2082
1501,2065,2089
1513,2072,2096
1524,2099,2090
1536,2096,2080
1548,2094,2080
1560,2080,2057
1572,2080,2060
1583,2077,2051
1595,2075,2036
1607,2077,2026
1619,2066,2017
1631,2068,2010
1643,2063,2002
1654,2053,2003
1666,2056,1999
1678,2059,1986
1690,2055,1990
1702,2065,1982
1714,2047,1992
1725,2056,1984
1737,2050,1973
1749,2049,1987
1761,2041,1985
1773,2040,1976
1785,2043,1977
1796,2060,1976
1808,2064,1979
1820,2067,1991
1832,2072,1999
1844,2064,1998
1855,2066,2008
1867,2057,2004
1879,2054,2014
1891,2054,2030
1903,2051,2037
1915,2056,2048
1926,2070,2038
1938,2065,2038
1950,2075,2036
1962,2068,2043
1974,2043,2055
1986,2022,2066
1997,2005,2077
2009,2011,2084
2021,2033,2093
2033,2058,2088
2045,2081,2088
2057,2085,2086
2068,2070,2081
2080,2045,2085
2092,2027,2076
2104,2035,2058
2116,2041,2048
2127,2032,2040
2139,2022,2042
2151,1979,2042
2163,1966,2047
2175,1973,2034
2187,2020,2020
2198,2105,2008
2210,2172,1986
2222,2191,1971
2234,2158,1959
2246,2087,1960
2258,2027,1966
2269,1995,1953
2281,1980,1965
2293,1995,1970
2305,2007,1986
2317,1999,2014
2329,1995,2039
2340,1976,2057
2352,1993,2061
2364,2049,2065
2376,2112,2049
2388,2153,2026
2400,2159,2010
2411,2128,1993
2423,2072,1979
2435,2023,1968
2447,1998,1959
2459,2018,1949
2471,2042,1943
2482,2058,1940
2494,2070,1968
2506,2059,1987
2518,2042,2024
2530,2036,2046
2541,2047,2062
2553,2083,2081
2565,2112,2076
2577,2138,2074
2589,2149,2059
2601,2139,2051
2612,2110,2043
2624,2087,2036
2636,2060,2026
2648,2044,2038
2660,2044,2042
2672,2050,2055
2683,2068,2076
2695,2102,2099
2707,2149,2122
2719,2208,2140
2731,2267,2151
2743,2293,2147
2754,2308,2157
2766,2304,2165
2778,2283,2174
2790,2258,2185
2802,2245,2194
2814,2225,2211
2825,2227,2234
2837,2233,2255
2849,2260,2289
2861,2296,2323
2873,2319,2352
2884,2353,2370
2896,2356,2381
2908,2341,2370
2920,2321,2342
2932,2299,2309
2944,2289,2271
2955,2283,2224
2967,2285,2180
2979,2286,2144
2991,2268,2122
3003,2245,2102
3015,2202,2111
3026,2163,2113
3038,2125,2123
3050,2096,2122
3062,2087,2110
3074,2070,2084
3086,2057,2077
3097,2032,2080
3109,2029,2100
3121,2034,2116
3133,2049,2149
3145,2073,2205
3157,2112,2248
3168,2148,2296
3180,2170,2328
3192,2180,2330
3204,2176,2330
3216,2175,2304
3228,2162,2282
3239,2156,2257
3251,2151,2244
3263,2132,2255
3275,2116,2291
3287,2117,2358
3298,2130,2432
3310,2133,2486
3322,2136,2514
3334,2133,2493
3346,2119,2459
3358,2081,2388
3369,2053,2306
3381,2009,2218
3393,1965,2145
3405,1954,2073
3417,1936,2027
3429,1919,1998
3440,1919,1982
3452,1920,1989
3464,1922,2001
3476,1926,2021
3488,1928,2049
3500,1947,2082
3511,1979,2094
3523,2008,2130
3535,2041,2137
3547,2083,2161
3559,2097,2182
3571,2112,2199
3582,2121,2195
3594,2125,2184
3606,2119,2158
3618,2112,2129
3630,2081,2095
3642,2055,2071
3653,2025,2046
3665,2005,2016
3677,1981,1988
3689,1968,1971
3701,1944,1960
3712,1935,1942
3724,1919,1930
3736,1927,1923
3748,1927,1920
3760,1937,1917
3772,1955,1915
3783,1961,1929
3795,1974,1923
3807,1973,1921
3819,1977,1910
3831,1968,1899
3843,1960,1875
3854,1948,1856
3866,1925,1861
3878,1903,1859
3890,1879,1864
3902,1862,1887
3914,1859,1910
3925,1859,1926
3937,1865,1950
3949,1869,1978
3961,1876,2005
3973,1893,2029
3985,1919,2041
3996,1944,2038
4008,1982,2050
4020,2016,2067
4032,2070,2082
4044,2101,2097
4055,2136,2109
4067,2154,2099
4079,2190,2083
4091,2193,2056
4103,2196,2043
4115,2180,2024
4126,2157,2009
4138,2141,2002
4150,2118,2002
4162,2107,2000
4174,2089,2006
4186,2066,2012
4197,2062,2015
4209,2059,2021
4221,2058,2013
4233,2051,2005
4245,2038,2002
4257,2038,1998
4268,2033,1998
4280,2018,2006
4292,2008,2016
4304,1991,2022
4316,1983,2045
4328,1978,2048
4339,1971,2058
4351,1966,2061
4363,1943,2079
4375,1940,2089
4387,1925,2091
4399,1928,2095
4410,1932,2089
4422,1941,2077
4434,1948,2066
4446,1961,2054
4458,1971,2065
4469,1983,2060
4481,1996,2073
4493,2015,2082
4505,2031,2098
4517,2062,2111
4529,2066,2131
4540,2076,2136
4552,2083,2132
4564,2094,2124
4576,2100,2122
4588,2102,2120
4600,2101,2116
4611,2103,2103
4623,2092,2098
4635,2082,2090
4647,2078,2076
4659,2064,2077
4671,2057,2074
4682,2065,2079
4694,2073,2076
4706,2078,2070
4718,2093,2065
4730,2100,2052
4742,2105,2049
4753,2112,2031
4765,2117,2020
4777,2111,2005
4789,2104,1988
4801,2092,1975
4812,2081,1956
4824,2062,1947
4836,2051,1924
4848,2035,1902
4860,2034,1878
4872,2019,1851
4883,2010,1832
4895,2019,1809
4907,2025,1800
4919,2027,1788
4931,2022,1800
4943,2017,1819
4954,2002,1853
4966,1988,1906
4978,1970,1950
4990,1971,1986
5002,1971,2006
5014,1977,1995
5025,1990,1976
5037,2012,1937
5049,2024,1911
5061,2022,1859
5073,2018,1814
5085,1999,1761
5096,1990,1724
5108,1982,1688
5120,1976,1661
5132,1960,1646
5144,1952,1647
5156,1948,1650
5167,1947,1672
5179,1965,1694
5191,1980,1732
5203,2006,1767
5215,2031,1798
5227,2048,1832
5238,2062,1866
5250,2076,1900
5262,2087,1932
5274,2099,1964
5286,2102,1999
5297,2105,2016
5309,2078,2052
5321,2045,2100
5333,1991,2141
5345,1964,2191
5357,1960,2234
5368,1993,2271
5380,2023,2309
5392,2035,2346
5404,2009,2384
5416,1925,2405
5428,1849,2415
5439,1802,2411
5451,1803,2401
5463,1843,2384
5475,1887,2382
5487,1930,2377
5499,1943,2374
5510,1919,2364
5522,1891,2346
5534,1871,2319
5546,1877,2275
5558,1899,2219
5570,1940,2147
5581,1987,2074
5593,2023,2005
5605,2041,1932
5617,2041,1875
5629,2011,1819
5641,1975,1772
5652,1922,1741
5664,1892,1682
5676,1851,1636
5688,1853,1562
5700,1863,1494
5711,1883,1446
5723,1887,1416
5735,1888,1398
5747,1870,1428
5759,1843,1474
5771,1843,1556
5782,1852,1631
5794,1909,1743
5806,1963,1836
5818,2022,1911
5830,2076,1976
5842,2127,2033
5853,2167,2097
5865,2208,2125
5877,2230,2157
5889,2272,2187
5901,2345,2196
5913,2451,2214
5924,2560,2221
5936,2683,2239
5948,2790,2259
5960,2844,2289
5972,2877,2347
5984,2879,2403
5995,2878,2469
6007,2855,2568
6019,2832,2708
6031,2810,2852
6043,2775,3015
6054,2801,3136
6066,2899,3212
6078,2963,3245
6090,3033,3237
6102,3106,3192
6114,3134,3109
6125,3112,3017
6137,3028,2915
6149,2866,2817
6161,2611,2723
6173,2329,2639
6185,2022,2558
6196,1728,2530
6208,1415,2516
6220,1066,2514
6232,919,2535
6244,1033,2577
6256,1404,2657
6267,1919,2711
6279,2267,2726
6291,2664,2699
6303,2906,2645
6315,2920,2614
6327,2772,2589
6338,2277,2546
6350,1666,2459
6362,1243,2355
6374,1119,2337
6386,1312,2445
6398,1824,2667
6409,2467,2909
6421,3036,3049
6433,3462,3001
6445,3602,2805
6457,3424,2604
6468,2987,2502
6480,2363,2472
6492,1641,2450
6504,849,2414
6516,190,2378
6528,19,2366
6539,28,2410
6551,21,2482
6563,28,2526
6575,175,2525
6587,708,2508
6599,1317,2501
6610,1953,2512
6622,2538,2539
6634,2996,2554
6646,3313,2565
6658,3454,2583
6669,3435,2588
6681,3265,2594
6693,2992,2583
6705,2677,2566
6717,2327,2538
6729,2023,2508
6740,1800,2472
6752,1632,2427
6764,1529,2363
6776,1493,2323
6788,1526,2282
6800,1614,2310
6811,1755,2394
6823,1941,2531
6835,2187,2739
6847,2464,3026
6859,2730,3345
6871,2953,3682
6882,3100,3913
6894,3151,3914
6906,3121,3916
6918,3009,3918
6930,2817,3918
6941,2581,3916
6953,2333,3911
6965,2122,3918
6977,1977,3917
6989,1908,3918
7001,1895,3912
7012,1931,3918
7024,1968,3920
7036,2021,3916
7048,2052,3915
7060,1955,3916
7072,1737,3914
7083,1494,3917
7095,1288,3914
7107,1266,3917
7119,1443,3918
7131,1627,3918
7143,1671,3918
7154,1578,3914
7166,1308,3921
7178,947,3915
7190,701,3920
7202,682,3917
7214,838,3917
7225,1218,3918
7237,1655,3922
7249,1981,3922
7261,2268,3925
7273,2602,3927
7284,3033,3921
7296,3362,3918
7308,3622,3915
7320,3731,3920
7332,3666,3918
7344,3490,3914
7355,3151,3914
7367,2691,3910
7379,2181,20
7391,1652,27
7403,1185,23
7415,913,28
7426,755,22
7438,735,29
7450,862,26
7462,1063,23
7474,1289,22
7485,1547,14
7497,1795,22
7509,2057,21
7521,2281,23
7533,2455,21
7544,2539,24
7556,2567,20
7568,2545,21
7580,2512,21
7592,2456,22
7604,2365,21
7615,2240,26
7627,2074,26
7639,1908,28
7651,1779,22
7663,1680,25
7674,1651,23
7686,1713,24
7698,1763,22
7710,1878,23
7722,1940,23
7733,2178,26
7745,3476,20
7757,3930,23
7769,3925,21
7781,3934,46
7793,3927,25
7804,3931,20
7816,3931,24
7828,3932,31
7840,3934,23
7852,3927,24
7863,3930,25
7875,3933,18
7887,3931,23
7899,3931,25
7911,3928,24
7922,3930,25
7934,3931,24
7946,3930,21
7958,3925,23
7970,2458,29
7982,20,19
7993,25,23
8005,25,34
8017,24,27
8029,21,23
8041,25,23
8052,24,22
8064,21,25
8076,25,23
8088,23,19
8100,27,23
8111,28,24
8123,21,25
8135,20,24
8147,27,25
8159,24,26
8170,23,22
8182,18,16
8194,24,24
8206,25,8
8218,22,30
8230,30,23
8241,23,27
8253,22,26
8265,22,26
8277,26,21
8289,23,22
8300,21,17
8312,24,21
8324,26,26
8336,24,29
8348,23,20
8359,12,25
8371,23,25
8383,26,24
8395,22,14
8407,19,24
8419,22,398
8430,22,490
8442,23,233
8454,20,23
8466,25,23
8478,21,25
8489,23,23
8501,22,28
8513,25,28
8525,23,27
8537,25,23
8548,22,30
8560,27,28
8572,17,20
8584,3929,897
8596,3927,1950
8607,3932,3244
8619,3931,3912
8631,3933,3906
8643,3930,3917
8655,3934,3916
8667,3932,3909
8678,3936,3910
8690,3932,3922
8702,3933,3912
8714,3929,3915
8726,3932,3921
8738,3938,3921
8749,3936,3916
8761,3930,3915
8773,3932,3916
8785,3932,3918
8797,3934,3919
8809,3935,3918
8820,3934,3919
8832,3936,3923
8844,3935,3918
8856,3931,3919
8868,3929,3916
8879,3933,3914
8891,3932,3923
8903,3929,3918
8915,3942,3906
8927,3941,3913
8939,3932,3911
8950,3934,3916
8962,3929,3916
8974,3934,3910
8986,3934,3915
8998,3936,3908
9010,3935,3915
9021,3933,3914
9033,3931,3917
9045,3930,3917
9057,3937,3918
9069,3929,3917
9081,3929,3910
9092,3937,3915
9104,3939,3920
9116,3932,3913
9128,3933,3922
9140,3931,3917
9152,3926,3924
9163,3926,3915
9175,3928,3916
9187,3936,3914
9199,3929,3919
9211,3936,3921
9223,3934,3914
9234,3933,3914
9246,3933,3919
9258,3931,3914
9270,3934,3922
9282,3931,3922
9294,3931,3912
9305,3932,3912
9317,3928,3913
9329,3930,1466
9341,3928,25
9353,3931,22
9364,3938,24
9376,3930,26
9388,3924,22
9400,3929,20
9412,3936,27
9424,3928,19
9435,3931,27
9447,3928,26
9459,3929,22
9471,3933,2671
9483,3617,3923
9494,2711,3919
9506,1729,3914
9518,523,3918
9530,23,3913
9542,22,3910
9554,27,3912
9565,25,3922
9577,24,3914
9589,22,3916
9601,29,3927
9613,22,3913
9624,19,3915
9636,28,3912
9648,23,3909
9660,30,3911
9672,22,3909
9684,25,3906
9695,583,3918
9707,2034,3087
9719,27,2502
9731,18,2208
9743,22,2218
9755,21,2504
9766,24,3083
9778,19,3883
9790,21,3916
9802,25,3919
9814,22,3916
9825,24,3920
9837,17,3919
9849,22,3918
9861,22,3919
9873,28,3918
9884,26,3919
9896,22,3918
9908,26,3920
9920,24,3915
9932,22,3908
9944,24,3909
9955,21,3912
9967,25,18
9979,20,46
9991,26,24
