timestamp_ms,ppg1,ppg2
0,21,3040
12,24,2690
24,24,2440
35,25,2241
47,25,2134
59,22,2100
71,23,2129
83,22,2186
94,25,2237
106,20,2298
118,22,2332
130,18,2356
142,24,2376
153,22,2386
165,18,2404
177,23,2418
189,18,2488
201,19,2626
212,22,2816
224,27,3079
236,22,3390
248,21,3724
260,24,3909
271,29,3911
283,19,3908
295,27,3910
307,26,3908
319,31,3918
330,25,3914
342,23,3911
354,23,3910
366,23,3911
378,21,3910
389,25,3914
401,24,3912
413,24,3913
425,24,3913
437,23,3912
448,44,3911
460,21,3909
472,20,3910
484,24,3913
496,26,3914
508,21,3912
519,19,3917
531,24,3911
543,34,3911
555,25,3912
567,27,3921
578,23,3917
590,25,3917
602,25,3921
614,939,3915
626,2682,3916
637,3881,3918
649,3911,3918
661,3911,3913
673,3911,3916
685,3919,3908
697,3912,3914
708,3908,3912
720,3909,3903
732,3916,3906
744,3918,26
756,3916,20
767,3909,21
779,3914,24
791,3911,23
803,3909,23
815,3921,19
827,3912,11
838,3918,23
850,3914,21
862,3912,24
874,3917,21
886,3913,22
897,3915,20
909,3917,23
921,3913,26
933,3915,24
945,3912,22
956,3913,23
968,3918,24
980,3913,24
992,3910,19
1004,3902,21
1015,3908,22
1027,3912,24
1039,3912,26
1051,3919,24
1063,3915,20
1074,3915,24
1086,3905,27
1098,3912,22
1110,3907,26
1122,3909,26
1133,3904,24
1145,3902,23
1157,31,20
1169,24,27
1181,27,23
1192,24,23
1204,27,22
1216,25,21
1228,20,24
1240,22,26
1251,23,22
1263,23,24
1275,26,19
1287,25,26
1299,23,19
1310,23,26
1322,29,24
1334,19,30
1346,22,24
1358,21,18
1369,24,25
1381,25,26
1393,28,24
1405,1622,24
1417,3916,23
1428,3915,28
1440,3916,1152
1452,3921,3168
1464,3917,3513
1476,3924,2031
1488,3921,24
1499,3918,25
1511,3922,24
1523,3921,21
1535,3922,23
1547,3918,23
1558,3920,21
1570,3916,26
1582,3921,24
1594,3920,18
1606,3922,18
1617,3920,24
1629,3920,19
1641,3922,23
1653,3912,21
1665,3918,27
1677,3915,25
1688,3916,23
1700,3914,24
1712,3918,23
1724,3914,18
1736,3914,28
1747,3917,19
1759,3912,24
1771,3912,26
1783,3913,24
1795,3913,24
1806,3910,27
1818,3912,28
1830,3910,27
1842,3912,21
1854,3911,26
1866,3912,22
1877,3913,25
1889,3916,24
1901,3913,26
1913,3915,23
1925,3918,24
1936,3914,27
1948,3907,26
1960,3917,20
1972,3915,365
1984,3915,2673
1995,3917,3909
2007,3912,3905
2019,3913,3902
2031,3919,3907
2043,3916,3909
2055,3921,3911
2066,3914,3909
2078,3912,3913
2090,3914,3905
2102,3912,3916
2114,3917,3907
2125,3917,3909
2137,3917,3909
2149,3915,3912
2161,3917,3910
2173,3915,3908
2185,3914,3907
2196,3920,3913
2208,3917,3911
2220,3916,3902
2232,3919,3906
2244,3921,3911
2256,3921,3913
2267,3922,3909
2279,3920,3914
2291,3914,3910
2303,3915,3910
2315,3919,3914
2327,3916,3909
2338,3924,3914
2350,3919,3911
2362,3918,3910
2374,3919,3912
2386,3920,3908
2398,3915,3919
2409,3924,3913
2421,3920,3909
2433,3922,3908
2445,3922,3910
2457,3917,3912
2469,3922,3912
2480,3922,3913
2492,3920,3915
2504,3925,3908
2516,3921,3908
2528,3918,3915
2540,3926,3912
2551,3917,3912
2563,3914,3913
2575,3922,3911
2587,3918,3910
2599,3919,3910
2611,3919,3917
2622,3918,3907
2634,3921,3908
2646,3920,3912
2658,3917,3915
2670,3919,3913
2681,3926,3918
2693,3917,3910
2705,3914,3905
2717,3919,3908
2729,3922,3915
2741,3919,3914
2752,3919,3908
2764,3919,3917
2776,3920,3906
2788,3922,3907
2800,3917,3907
2812,3917,3910
2823,3913,3906
2835,3918,3907
2847,3918,3912
2859,3918,3907
2871,3914,3911
2883,3918,3913
2894,3921,3268
2906,3913,2726
2918,3920,2290
2930,3919,1981
2942,3918,1776
2953,3918,1672
2965,3916,1645
2977,3916,1670
2989,3917,1727
3001,3915,1812
3013,3918,1899
3024,3915,1991
3036,3918,2075
3048,3916,2157
3060,3915,2234
3072,3914,2306
3084,3913,2373
3095,3916,2454
3107,3915,2543
3119,3914,2625
3131,3918,2698
3143,3916,2757
3155,3915,2812
3166,3920,2884
3178,3916,2989
3190,3915,3136
3202,3920,3309
3214,3917,3495
3225,3918,3652
3237,3915,3749
3249,3919,3783
3261,3919,3756
3273,3920,3661
3285,3915,3551
3296,3918,3409
3308,3919,3247
3320,3917,3083
3332,3919,2931
3344,3913,2790
3356,3915,2685
3367,3918,2592
3379,3915,2482
3391,3912,2403
3403,3914,2303
3415,3918,2224
3427,3917,2169
3438,3916,2144
3450,3919,2136
3462,3910,2146
3474,3917,2173
3486,3914,2216
3498,3921,2259
3509,3918,2295
3521,3917,2334
3533,3916,2379
3545,3921,2414
3557,3911,2447
3569,3920,2465
3580,3918,2483
3592,3915,2503
3604,3913,2551
3616,3916,2609
3628,3911,2694
3640,3914,2780
3651,3918,2862
3663,3917,2911
3675,3914,2953
3687,3917,2955
3699,3915,2926
3710,3917,2871
3722,3916,2788
3734,3914,2687
3746,3911,2569
3758,3905,2466
3770,3136,2356
3781,2488,2262
3793,1992,2170
3805,1606,2103
3817,1343,2031
3829,1175,1959
3841,1063,1898
3852,1027,1859
3864,1042,1837
3876,1082,1833
3888,1138,1837
3900,1190,1862
3911,1247,1882
3923,1325,1901
3935,1396,1922
3947,1449,1939
3959,1466,1964
3971,1468,1994
3982,1487,2045
3994,1507,2112
4006,1532,2185
4018,1537,2260
4030,1506,2336
4042,1450,2419
4053,1404,2510
4065,1383,2598
4077,1392,2663
4089,1416,2720
4101,1424,2762
4112,1421,2793
4124,1413,2796
4136,1447,2783
4148,1510,2759
4160,1616,2715
4172,1723,2678
4183,1823,2639
4195,1900,2614
4207,1978,2588
4219,2065,2563
4231,2153,2552
4243,2221,2554
4254,2290,2578
4266,2358,2622
4278,2396,2660
4290,2414,2704
4302,2411,2761
4314,2395,2800
4325,2357,2837
4337,2296,2871
4349,2220,2901
4361,2119,2913
4373,2019,2917
4385,1910,2909
4396,1811,2879
4408,1732,2861
4420,1657,2830
4432,1589,2814
4444,1546,2778
4456,1511,2748
4467,1470,2710
4479,1404,2693
4491,1324,2677
4503,1240,2651
4515,1174,2631
4526,1101,2604
4538,1033,2590
4550,954,2575
4562,882,2559
4574,843,2552
4586,843,2541
4597,863,2524
4609,887,2515
4621,940,2486
4633,996,2459
4645,1082,2418
4657,1217,2391
4668,1395,2343
4680,1571,2283
4692,1742,2239
4704,1923,2209
4716,2111,2174
4727,2301,2147
4739,2508,2126
4751,2693,2129
4763,2860,2119
4775,3002,2132
4787,3165,2139
4798,3325,2137
4810,3488,2139
4822,3595,2153
4834,3658,2175
4846,3677,2195
4858,3660,2205
4869,3583,2220
4881,3470,2223
4893,3328,2228
4905,3191,2232
4917,3070,2208
4929,2966,2178
4940,2890,2133
4952,2819,2092
4964,2787,2051
4976,2807,2015
4988,2890,1980
4999,3058,1943
5011,3300,1901
5023,3623,1861
5035,3916,1847
5047,3914,1822
5059,3920,1798
5070,3913,1783
5082,3934,1752
5094,3915,1732
5106,3919,1718
5118,3916,1712
5130,3916,1712
5141,3916,1717
5153,3918,1736
5165,3916,1768
5177,3915,1816
5189,3921,1868
5201,3917,1929
5212,3919,1993
5224,3920,2081
5236,3918,2175
5248,3921,2290
5260,3922,2428
5272,3920,2576
5283,3918,2727
5295,3917,2891
5307,3914,3061
5319,3917,3222
5331,3917,3378
5343,3919,3501
5354,3920,3588
5366,3923,3633
5378,3915,3632
5390,3919,3586
5402,3923,3523
5414,3916,3452
5425,3919,3372
5437,3919,3298
5449,3918,3233
5461,3917,3201
5473,3917,3240
5485,3918,3338
5496,3927,3484
5508,3917,3629
5520,3917,3779
5532,3917,3916
5544,3919,3913
5556,3926,3912
5567,3916,3911
5579,3920,3910
5591,3925,3918
5603,3919,3917
5615,3925,3911
5626,3921,3913
5638,3918,3913
5650,3924,3913
5662,3924,3917
5674,3927,3914
5686,3921,3913
5697,3920,3910
5709,3932,3913
5721,3924,3910
5733,3923,3919
5745,3922,3774
5757,3926,3433
5768,3922,3157
5780,3922,3000
5792,3924,2956
5804,3923,3004
5816,3929,3103
5828,3923,3201
5839,3923,3257
5851,3923,3267
5863,3926,3241
5875,3925,3186
5887,3918,3131
5899,3922,3096
5910,3921,3091
5922,3925,3148
5934,3941,3239
5946,3924,3371
5958,3924,3533
5970,3922,3709
5981,3923,3883
5993,3926,3919
6005,3926,3915
6017,3926,3908
6029,3926,3908
6040,3928,3911
6052,3927,3912
6064,3925,3912
6076,3920,3914
6088,3927,3917
6100,3925,3916
6111,3926,3915
6123,3926,3910
6135,3929,3914
6147,3920,3918
6159,3925,3918
6171,3931,3920
6182,3923,3916
6194,3921,3909
6206,3919,3914
6218,3926,3921
6230,3927,3921
6242,3926,3919
6253,3929,3916
6265,3908,3917
6277,3920,3917
6289,3920,3917
6301,3924,3914
6313,3925,3915
6324,3926,3912
6336,3920,3918
6348,3926,3915
6360,3925,3917
6372,3924,3921
6383,3923,3914
6395,3930,3915
6407,3923,3916
6419,3929,3922
6431,3930,3918
6443,3928,3919
6454,3923,3915
6466,3928,3914
6478,3925,3919
6490,3923,3916
6502,3920,3918
6514,3930,3917
6525,3927,3909
6537,3927,3689
6549,3926,3389
6561,3928,3119
6573,3926,2925
6585,3922,2772
6596,3927,2681
6608,3927,2640
6620,3922,2645
6632,3927,2678
6644,3925,2750
6656,3926,2824
6667,3924,2917
6679,3922,3000
6691,3928,3105
6703,3928,3210
6715,3930,3306
6727,3926,3396
6738,3913,3452
6750,3927,3475
6762,3924,3482
6774,3926,3450
6786,3929,3388
6798,3925,3293
6809,3928,3186
6821,3926,3058
6833,3925,2930
6845,3927,2786
6857,3926,2642
6868,3926,2504
6880,3931,2377
6892,3927,2262
6904,3930,2136
6916,3927,2036
6928,3930,1959
6939,3934,1945
6951,3938,1975
6963,3934,2039
6975,3930,2135
6987,3939,2231
6999,3935,2220
7010,3933,2224
7022,3935,2780
7034,3937,3143
7046,3932,3056
7058,3936,2703
7070,3934,2212
7081,3935,1700
7093,3932,1256
7105,3931,936
7117,3926,752
7129,3921,682
7140,3915,692
7152,3914,752
7164,25,844
7176,24,948
7188,26,1096
7200,20,1266
7211,23,1384
7223,23,1589
7235,27,2277
7247,21,3529
7259,24,3914
7270,22,3913
7282,21,3918
7294,25,3833
7306,22,3917
7318,23,3918
7329,24,3922
7341,27,3921
7353,24,3921
7365,24,3919
7377,23,3924
7389,21,3920
7400,19,3921
7412,22,3929
7424,22,3921
7436,22,3922
7448,22,3919
7459,25,3920
7471,34,3916
7483,20,3916
7495,23,3920
7507,24,3910
7519,23,3913
7530,18,3924
7542,23,3913
7554,27,3921
7566,26,3920
7578,18,3914
7589,23,3919
7601,25,2088
7613,12,21
7625,23,31
7637,19,27
7648,23,30
7660,24,24
7672,22,26
7684,21,21
7696,24,26
7708,25,22
7719,25,21
7731,22,25
7743,24,21
7755,20,27
7767,23,24
7778,22,25
7790,20,23
7802,25,25
7814,22,16
7826,24,24
7837,25,19
7849,28,19
7861,23,24
7873,23,23
7885,22,25
7896,23,19
7908,23,24
7920,25,22
7932,23,24
7944,21,25
7956,25,25
7967,24,21
7979,23,25
7991,19,24
8003,23,25
8015,24,21
8026,25,28
8038,22,22
8050,20,22
8062,24,22
8074,22,25
8085,19,19
8097,24,18
8109,18,25
8121,25,26
8133,23,17
8144,24,27
8156,21,21
8168,24,23
8180,23,23
8192,24,24
8203,25,24
8215,21,21
8227,21,23
8239,21,20
8251,26,22
8263,17,23
8274,23,25
8286,20,22
8298,17,24
8310,21,27
8322,21,25
8333,24,24
8345,24,21
8357,22,21
8369,25,23
8381,22,25
8392,25,27
8404,24,24
8416,27,25
8428,21,24
8440,23,26
8451,20,21
8463,22,20
8475,23,25
8487,25,33
8499,22,25
8510,21,29
8522,23,22
8534,22,25
8546,22,21
8558,25,23
8570,31,23
8581,23,23
8593,23,20
8605,29,27
8617,20,22
8629,22,23
8640,20,27
8652,22,21
8664,23,28
8676,24,18
8688,24,24
8699,25,28
8711,21,25
8723,20,23
8735,22,34
8747,26,25
8758,20,21
8770,22,22
8782,24,24
8794,19,23
8806,25,25
8818,22,24
8829,24,21
8841,20,24
8853,17,21
8865,21,24
8877,25,21
8888,25,23
8900,20,26
8912,23,25
8924,19,26
8936,26,26
8947,24,30
8959,24,23
8971,23,22
8983,20,26
8995,24,24
9007,23,27
9018,23,24
9030,26,26
9042,22,18
9054,24,20
9066,24,21
9077,22,22
9089,43,23
9101,23,29
9113,24,28
9125,25,24
9136,25,25
9148,23,28
9160,21,24
9172,20,24
9184,23,23
9196,21,20
9207,20,24
9219,19,23
9231,19,22
9243,24,22
9255,22,19
9266,22,487
9278,25,898
9290,24,1259
9302,24,1557
9314,24,1797
9325,25,1948
9337,25,2050
9349,25,2089
9361,23,2096
9373,24,2045
9384,20,1951
9396,21,1852
9408,20,1751
9420,22,1647
9432,21,1541
9444,25,1454
9455,23,1376
9467,21,1300
9479,20,1238
9491,20,1192
9503,25,1154
9514,26,1129
9526,24,1121
9538,25,1128
9550,23,1158
9562,24,1195
9573,25,1234
9585,2,1275
9597,23,1319
9609,20,1348
9621,26,1382
9633,21,1408
9644,25,1427
9656,19,1440
9668,22,1456
9680,20,1477
9692,23,1505
9703,19,1529
9715,22,1578
9727,21,1614
9739,20,1645
9751,20,1685
9762,20,1722
9774,25,1753
9786,24,1780
9798,25,1796
9810,23,1793
9822,22,1782
9833,28,1773
9845,19,1763
9857,25,1751
9869,21,1739
9881,24,1732
9892,24,1712
9904,24,1707
9916,22,1691
9928,23,1681
9940,22,1674
9951,24,1660
9963,23,1661
9975,23,1662
9987,24,1667
9999,28,1684
