timestamp_ms,ppg1,ppg2
0,2952,3267
12,2973,2965
24,3020,2696
36,3073,2483
47,3121,2338
59,3165,2264
71,3197,2238
83,3236,2283
95,3257,2376
106,3282,2490
118,3309,2598
130,3319,2695
142,3325,2795
154,3334,2873
165,3352,2926
177,3387,2965
189,3437,3009
201,3501,3043
213,3541,3063
225,3572,3071
236,3579,3085
248,3577,3124
260,3546,3163
272,3497,3210
284,3438,3259
295,3397,3312
307,3321,3362
319,3239,3402
331,3147,3453
343,3052,3510
355,2985,3540
366,2960,3553
378,2968,3557
390,3003,3534
402,3074,3520
414,3158,3498
425,3235,3465
437,3293,3440
449,3335,3406
461,3358,3389
473,3373,3375
485,3378,3401
496,3380,3424
508,3386,3473
520,3419,3532
532,3471,3583
544,3513,3631
555,3562,3680
567,3611,3719
579,3642,3771
591,3670,3806
603,3703,3845
615,3711,3877
626,3715,3897
638,3710,3899
650,3696,3885
662,3697,3832
674,3689,3776
685,3672,3700
697,3663,3635
709,3655,3577
721,3651,3539
733,3631,3511
745,3613,3509
756,3606,3508
768,3584,3515
780,3574,3546
792,3559,3583
804,3546,3612
815,3527,3641
827,3511,3658
839,3508,3650
851,3492,3651
863,3482,3629
875,3471,3608
886,3463,3571
898,3464,3534
910,3470,3510
922,3473,3494
934,3495,3464
946,3514,3446
957,3536,3423
969,3552,3392
981,3563,3366
993,3552,3346
1005,3559,3323
1016,3550,3302
1028,3540,3278
1040,3512,3262
1052,3469,3258
1064,3425,3248
1076,3386,3257
1087,3356,3268
1099,3319,3264
1111,3289,3260
1123,3266,3253
1135,3253,3240
1147,3252,3237
1158,3262,3255
1170,3282,3281
1182,3302,3306
1194,3335,3344
1206,3380,3392
1217,3409,3439
1229,3441,3483
1241,3456,3522
1253,3470,3549
1265,3477,3570
1277,3462,3578
1288,3454,3576
1300,3435,3565
1312,3419,3552
1324,3398,3538
1336,3395,3531
1347,3401,3509
1359,3402,3497
1371,3405,3486
1383,3406,3470
1395,3413,3463
1407,3415,3452
1418,3406,3446
1430,3407,3431
1442,3397,3422
1454,3386,3395
1466,3363,3378
1478,3337,3349
1489,3329,3332
1501,3316,3307
1513,3324,3299
1525,3321,3281
1537,3319,3274
1549,3331,3256
1560,3332,3249
1572,3342,3237
1584,3347,3244
1596,3366,3250
1608,3375,3252
1619,3385,3259
1631,3394,3254
1643,3379,3269
1655,3362,3272
1667,3346,3267
1679,3330,3254
1690,3323,3254
1702,3306,3246
1714,3286,3235
1726,3291,3230
1738,3293,3220
1750,3296,3216
1761,3288,3213
1773,3277,3226
1785,3276,3237
1797,3256,3227
1809,3261,3226
1820,3250,3223
1832,3242,3217
1844,3241,3198
1856,3233,3190
1868,3237,3164
1880,3247,3145
1891,3251,3128
1903,3275,3120
1915,3291,3125
1927,3301,3136
1939,3306,3137
1950,3294,3153
1962,3288,3173
1974,3266,3190
1986,3239,3218
1998,3227,3268
2010,3206,3305
2021,3201,3358
2033,3230,3418
2045,3255,3469
2057,3293,3515
2069,3342,3543
2081,3385,3586
2092,3427,3594
2104,3450,3616
2116,3463,3613
2128,3462,3618
2140,3448,3609
2151,3438,3591
2163,3413,3557
2175,3412,3531
2187,3400,3503
2199,3386,3475
2211,3374,3453
2222,3364,3441
2234,3355,3430
2246,3348,3410
2258,3319,3422
2270,3294,3429
2282,3290,3451
2293,3290,3477
2305,3283,3489
2317,3296,3513
2329,3305,3534
2341,3336,3547
2353,3348,3547
2364,3367,3529
2376,3382,3508
2388,3377,3462
2400,3375,3419
2412,3364,3366
2423,3339,3316
2435,3314,3269
2447,3307,3237
2459,3298,3214
2471,3286,3189
2483,3284,3194
2494,3288,3194
2506,3296,3203
2518,3294,3203
2530,3297,3197
2542,3294,3187
2553,3267,3167
2565,3261,3149
2577,3231,3142
2589,3222,3132
2601,3210,3137
2613,3199,3142
2624,3193,3148
2636,3202,3149
2648,3215,3163
2660,3225,3156
2672,3248,3167
2684,3259,3170
2695,3271,3164
2707,3283,3156
2719,3301,3147
2731,3298,3139
2743,3295,3146
2755,3292,3125
2766,3283,3110
2778,3280,3110
2790,3259,3101
2802,3222,3082
2814,3210,3090
2826,3188,3098
2837,3182,3099
2849,3183,3109
2861,3184,3109
2873,3214,3131
2885,3227,3140
2897,3234,3147
2908,3243,3141
2920,3237,3133
2932,3238,3126
2944,3231,3126
2956,3213,3142
2967,3214,3160
2979,3220,3201
2991,3210,3240
3003,3213,3305
3015,3213,3380
3027,3233,3450
3038,3245,3506
3050,3256,3541
3062,3280,3583
3074,3306,3588
3086,3330,3585
3098,3335,3583
3109,3340,3561
3121,3336,3541
3133,3331,3511
3145,3324,3474
3157,3310,3438
3168,3308,3411
3180,3301,3402
3192,3301,3391
3204,3313,3414
3216,3324,3435
3228,3332,3448
3239,3349,3470
3251,3363,3466
3263,3384,3459
3275,3402,3449
3287,3411,3438
3299,3406,3409
3310,3410,3367
3322,3409,3341
3334,3403,3296
3346,3391,3266
3358,3392,3232
3370,3373,3213
3381,3356,3192
3393,3324,3168
3405,3298,3161
3417,3274,3156
3429,3254,3169
3441,3248,3172
3452,3248,3172
3464,3253,3185
3476,3244,3183
3488,3251,3174
3500,3248,3189
3511,3249,3192
3523,3243,3196
3535,3241,3193
3547,3226,3200
3559,3205,3190
3571,3203,3182
3582,3185,3174
3594,3172,3155
3606,3157,3139
3618,3151,3134
3630,3145,3124
3642,3140,3137
3653,3147,3152
3665,3166,3146
3677,3180,3145
3689,3199,3147
3701,3207,3135
3712,3215,3122
3724,3216,3107
3736,3230,3085
3748,3229,3072
3760,3235,3067
3772,3238,3059
3783,3228,3059
3795,3232,3059
3807,3227,3061
3819,3231,3056
3831,3239,3064
3843,3247,3060
3854,3255,3053
3866,3260,3057
3878,3266,3054
3890,3255,3061
3902,3254,3061
3914,3239,3068
3925,3229,3058
3937,3222,3065
3949,3217,3041
3961,3208,3032
3973,3200,3040
3984,3190,3052
3996,3191,3088
4008,3202,3123
4020,3222,3184
4032,3243,3245
4044,3266,3313
4055,3306,3379
4067,3331,3438
4079,3366,3493
4091,3377,3532
4103,3378,3551
4115,3391,3558
4126,3386,3560
4138,3389,3540
4150,3376,3523
4162,3373,3508
4174,3365,3493
4186,3358,3470
4197,3340,3459
4209,3346,3444
4221,3343,3428
4233,3330,3400
4245,3337,3368
4257,3336,3321
4268,3308,3279
4280,3287,3231
4292,3271,3188
4304,3253,3172
4316,3253,3151
4328,3252,3136
4339,3262,3129
4351,3267,3121
4363,3277,3129
4375,3275,3130
4387,3278,3140
4399,3279,3145
4410,3283,3158
4422,3297,3173
4434,3301,3180
4446,3323,3192
4458,3326,3191
4469,3332,3185
4481,3325,3180
4493,3319,3163
4505,3286,3147
4517,3264,3130
4529,3249,3133
4540,3242,3138
4552,3227,3151
4564,3218,3176
4576,3209,3188
4588,3201,3205
4600,3197,3219
4611,3205,3230
4623,3215,3224
4635,3214,3212
4647,3233,3198
4659,3252,3180
4670,3261,3173
4682,3265,3168
4694,3268,3156
4706,3277,3160
4718,3272,3146
4730,3266,3141
4741,3256,3137
4753,3240,3144
4765,3239,3157
4777,3234,3169
4789,3226,3171
4801,3230,3195
4812,3240,3207
4824,3233,3205
4836,3230,3195
4848,3226,3197
4860,3227,3178
4872,3224,3177
4883,3221,3185
4895,3224,3211
4907,3210,3236
4919,3208,3284
4931,3202,3341
4942,3208,3401
4954,3221,3448
4966,3259,3504
4978,3285,3545
4990,3316,3575
5002,3340,3605
5013,3341,3618
5025,3329,3628
5037,3329,3623
5049,3347,3630
5061,3339,3618
5073,3342,3617
5084,3347,3605
5096,3346,3590
5108,3346,3583
5120,3334,3562
5132,3337,3543
5143,3338,3538
5155,3317,3519
5167,3317,3511
5179,3303,3483
5191,3287,3441
5203,3279,3409
5214,3284,3378
5226,3280,3354
5238,3288,3322
5250,3286,3308
5262,3285,3302
5274,3277,3295
5285,3274,3297
5297,3269,3293
5309,3256,3303
5321,3260,3302
5333,3253,3325
5345,3260,3328
5356,3259,3324
5368,3264,3316
5380,3270,3307
5392,3268,3286
5404,3269,3279
5415,3273,3274
5427,3269,3266
5439,3273,3251
5451,3272,3235
5463,3276,3222
5475,3263,3200
5486,3256,3201
5498,3239,3192
5510,3234,3181
5522,3239,3182
5534,3254,3189
5546,3262,3179
5557,3262,3165
5569,3274,3167
5581,3267,3170
5593,3262,3164
5605,3253,3168
5617,3250,3170
5628,3244,3172
5640,3242,3167
5652,3222,3162
5664,3227,3163
5676,3214,3159
5687,3203,3148
5699,3206,3132
5711,3215,3129
5723,3219,3121
5735,3223,3125
5747,3236,3128
5758,3247,3133
5770,3253,3134
5782,3260,3129
5794,3255,3130
5806,3248,3127
5818,3251,3114
5829,3230,3116
5841,3227,3120
5853,3221,3160
5865,3206,3201
5877,3203,3262
5889,3205,3321
5900,3207,3387
5912,3213,3444
5924,3236,3498
5936,3253,3558
5948,3283,3606
5960,3309,3644
5971,3337,3668
5983,3360,3674
5995,3357,3660
6007,3371,3642
6019,3375,3624
6030,3370,3599
6042,3371,3575
6054,3364,3557
6066,3347,3517
6078,3332,3491
6090,3336,3464
6101,3331,3441
6113,3318,3414
6125,3323,3390
6137,3314,3361
6149,3323,3333
6161,3313,3304
6172,3323,3294
6184,3323,3294
6196,3333,3281
6208,3334,3271
6220,3335,3266
6232,3336,3267
6243,3329,3250
6255,3314,3242
6267,3306,3234
6279,3297,3219
6291,3300,3209
6302,3296,3198
6314,3297,3201
6326,3292,3221
6338,3307,3228
6350,3313,3242
6362,3308,3243
6373,3298,3224
6385,3287,3198
6397,3278,3189
6409,3270,3181
6421,3271,3169
6433,3261,3160
6444,3250,3159
6456,3247,3160
6468,3240,3159
6480,3230,3158
6492,3233,3161
6504,3230,3162
6515,3227,3164
6527,3228,3164
6539,3237,3170
6551,3234,3170
6563,3236,3157
6574,3233,3149
6586,3226,3140
6598,3214,3129
6610,3211,3133
6622,3211,3139
6634,3205,3135
6645,3215,3142
6657,3229,3148
6669,3227,3156
6681,3234,3165
6693,3235,3182
6705,3222,3182
6716,3202,3182
6728,3195,3162
6740,3194,3147
6752,3193,3142
6764,3201,3141
6776,3212,3148
6787,3217,3173
6799,3226,3227
6811,3245,3282
6823,3250,3358
6835,3267,3434
6847,3293,3490
6858,3310,3539
6870,3319,3592
6882,3340,3626
6894,3360,3638
6906,3380,3646
6918,3392,3644
6929,3403,3630
6941,3409,3604
6953,3397,3586
6965,3384,3549
6977,3371,3511
6989,3367,3479
7000,3378,3458
7012,3390,3424
7024,3393,3399
7036,3395,3366
7048,3405,3347
7059,3402,3320
7071,3398,3307
7083,3398,3302
7095,3379,3302
7107,3377,3310
7119,3360,3322
7130,3353,3325
7142,3346,3328
7154,3338,3335
7166,3323,3324
7178,3309,3319
7190,3287,3309
7201,3282,3316
7213,3271,3301
7225,3270,3288
7237,3263,3290
7249,3262,3286
7261,3258,3273
7272,3260,3264
7284,3267,3259
7296,3271,3238
7308,3276,3233
7320,3271,3227
7332,3268,3220
7343,3266,3224
7355,3243,3204
7367,3230,3205
7379,3226,3208
7391,3221,3211
7402,3214,3208
7414,3214,3205
7426,3222,3207
7438,3246,3208
7450,3250,3196
7462,3241,3196
7473,3242,3196
7485,3238,3194
7497,3232,3199
7509,3229,3182
7521,3217,3173
7533,3218,3173
7544,3200,3162
7556,3195,3146
7568,3204,3145
7580,3212,3142
7592,3218,3149
7604,3245,3161
7615,3246,3145
7627,3244,3151
7639,3229,3134
7651,3205,3136
7663,3201,3147
7675,3198,3159
7686,3194,3181
7698,3193,3224
7710,3191,3276
7722,3201,3328
7734,3205,3402
7746,3229,3457
7757,3248,3512
7769,3269,3556
7781,3291,3602
7793,3298,3630
7805,3297,3636
7817,3312,3653
7828,3320,3643
7840,3340,3639
7852,3341,3621
7864,3351,3610
7876,3350,3589
7887,3353,3569
7899,3349,3531
7911,3358,3507
7923,3353,3489
7935,3355,3466
7947,3357,3438
7958,3348,3415
7970,3349,3398
7982,3340,3369
7994,3338,3356
8006,3330,3345
8018,3337,3345
8029,3324,3333
8041,3325,3320
8053,3322,3315
8065,3309,3306
8077,3304,3304
8088,3303,3299
8100,3288,3292
8112,3289,3286
8124,3277,3275
8136,3278,3276
8148,3287,3279
8159,3284,3280
8171,3288,3275
8183,3295,3273
8195,3283,3259
8207,3286,3243
8219,3269,3245
8230,3272,3237
8242,3267,3245
8254,3268,3244
8266,3246,3247
8278,3241,3242
8290,3242,3253
8301,3222,3247
8313,3219,3247
8325,3234,3246
8337,3234,3224
8349,3231,3223
8361,3237,3210
8372,3232,3198
8384,3238,3202
8396,3246,3198
8408,3248,3192
8420,3246,3195
8432,3237,3192
8443,3232,3192
8455,3232,3189
8467,3219,3193
8479,3220,3194
8491,3228,3207
8503,3223,3193
8514,3213,3184
8526,3225,3190
8538,3229,3187
8550,3226,3172
8562,3218,3159
8573,3203,3140
8585,3203,3118
8597,3197,3139
8609,3193,3172
8621,3181,3219
8633,3182,3281
8644,3193,3356
8656,3203,3427
8668,3218,3494
8680,3245,3550
8692,3266,3586
8704,3282,3620
8715,3310,3639
8727,3321,3633
8739,3328,3638
8751,3345,3623
8763,3332,3612
8774,3344,3595
8786,3340,3583
8798,3344,3563
8810,3356,3554
8822,3357,3534
8834,3362,3522
8845,3356,3509
8857,3336,3485
8869,3329,3454
8881,3334,3440
8893,3319,3408
8905,3319,3384
8916,3311,3362
8928,3297,3334
8940,3283,3324
8952,3287,3315
8964,3286,3313
8976,3273,3310
8987,3264,3303
8999,3267,3294
9011,3266,3287
9023,3269,3283
9035,3260,3276
9047,3278,3265
9058,3281,3257
9070,3275,3249
9082,3276,3241
9094,3279,3241
9106,3277,3228
9118,3270,3223
9129,3261,3202
9141,3249,3197
9153,3250,3185
9165,3244,3177
9177,3233,3176
9188,3233,3176
9200,3242,3188
9212,3243,3181
9224,3233,3188
9236,3235,3201
9248,3226,3191
9259,3229,3206
9271,3222,3202
9283,3211,3186
9295,3211,3182
9307,3197,3169
9319,3192,3161
9330,3196,3156
9342,3199,3158
9354,3207,3151
9366,3215,3142
9378,3227,3146
9390,3232,3147
9401,3231,3152
9413,3211,3161
9425,3216,3165
9437,3214,3170
9449,3203,3167
9460,3207,3168
9472,3219,3167
9484,3211,3167
9496,3212,3153
9508,3200,3136
9520,3206,3126
9531,3200,3129
9543,3188,3145
9555,3187,3165
9567,3180,3196
9579,3187,3252
9591,3195,3304
9602,3203,3361
9614,3217,3416
9626,3241,3476
9638,3259,3530
9650,3286,3573
9662,3315,3606
9673,3344,3620
9685,3360,3631
9697,3366,3623
9709,3361,3615
9721,3362,3614
9733,3364,3605
9744,3357,3589
9756,3350,3566
9768,3352,3552
9780,3336,3523
9792,3328,3490
9804,3324,3464
9815,3312,3442
9827,3319,3418
9839,3331,3391
9851,3330,3362
9863,3334,3339
9875,3331,3327
9886,3340,3313
9898,3332,3309
9910,3326,3315
9922,3322,3304
9934,3323,3303
9945,3308,3297
9957,3300,3279
9969,3300,3263
9981,3290,3254
9993,3284,3243
10005,3276,3250
10016,3279,3242
10028,3282,3235
10040,3270,3224
10052,3285,3223
10064,3287,3211
10076,3294,3209
10087,3295,3200
10099,3281,3182
10111,3267,3171
10123,3250,3165
10135,3232,3154
10147,3218,3158
10158,3192,3155
10170,3195,3155
10182,3202,3167
10194,3197,3176
10206,3202,3188
10218,3189,3177
10229,3190,3172
10241,3183,3160
10253,3194,3143
10265,3195,3139
10277,3208,3144
10289,3221,3136
10300,3232,3134
10312,3229,3123
10324,3233,3128
10336,3228,3128
10348,3230,3131
10360,3226,3129
10371,3225,3127
10383,3220,3135
10395,3208,3144
10407,3200,3146
10419,3200,3157
10430,3194,3151
10442,3186,3139
10454,3182,3132
10466,3175,3108
10478,3180,3092
10490,3182,3103
10502,3175,3130
10513,3173,3176
10525,3184,3241
10537,3176,3291
10549,3188,3365
10561,3208,3418
10573,3222,3482
10584,3235,3529
10596,3256,3557
10608,3278,3575
10620,3287,3587
10632,3297,3585
10644,3301,3583
10655,3313,3581
10667,3319,3549
10679,3324,3530
10691,3330,3511
10703,3323,3481
10714,3322,3479
10726,3318,3454
10738,3320,3440
10750,3312,3413
10762,3309,3397
10774,3300,3374
10785,3283,3351
10797,3276,3329
10809,3265,3310
10821,3257,3304
10833,3256,3285
10845,3252,3270
10856,3243,3269
10868,3234,3256
10880,3238,3253
10892,3244,3250
10904,3242,3236
10916,3241,3231
10927,3241,3222
10939,3244,3220
10951,3251,3216
10963,3241,3214
10975,3240,3220
10987,3241,3217
10998,3255,3203
11010,3258,3199
11022,3266,3185
11034,3272,3183
11046,3274,3171
11058,3272,3168
11069,3250,3159
11081,3246,3162
11093,3246,3156
11105,3240,3150
11117,3230,3144
11129,3232,3140
11140,3222,3142
11152,3212,3138
11164,3202,3122
11176,3206,3114
11188,3192,3112
11200,3200,3100
11211,3203,3087
11223,3190,3080
11235,3200,3081
11247,3204,3076
11259,3201,3081
11271,3204,3080
11282,3213,3073
11294,3217,3071
11306,3224,3072
11318,3235,3078
11330,3244,3058
11342,3259,3053
11353,3266,3033
11365,3277,3029
11377,3285,3018
11389,3284,3015
11401,3281,3019
11412,3275,3013
11424,3264,3022
11436,3243,3049
11448,3221,3066
11460,3201,3109
11472,3171,3158
11483,3162,3223
11495,3180,3294
11507,3173,3352
11519,3178,3408
11531,3187,3463
11543,3203,3512
11554,3220,3532
11566,3244,3546
11578,3265,3543
11590,3270,3529
11602,3281,3516
11614,3278,3496
11625,3270,3474
11637,3265,3445
11649,3254,3416
11661,3266,3404
11673,3270,3387
11685,3264,3377
11696,3261,3356
11708,3272,3349
11720,3265,3331
11732,3264,3329
11744,3260,3312
11756,3261,3292
11767,3252,3272
11779,3263,3248
11791,3253,3227
11803,3260,3221
11815,3269,3204
11827,3276,3192
11838,3275,3173
11850,3266,3149
11862,3259,3125
11874,3248,3111
11886,3244,3108
11898,3248,3114
11909,3254,3122
11921,3264,3136
11933,3261,3137
11945,3273,3150
11957,3269,3164
11969,3263,3166
11980,3262,3171
11992,3244,3167
12004,3233,3148
12016,3226,3144
12028,3213,3136
12039,3207,3132
12051,3213,3123
12063,3226,3125
12075,3225,3115
12087,3224,3096
12099,3225,3087
12110,3224,3080
12122,3228,3064
12134,3217,3057
12146,3215,3051
12158,3215,3057
12170,3215,3071
12181,3219,3072
12193,3211,3066
12205,3208,3068
12217,3200,3068
12229,3194,3061
12241,3187,3057
12252,3176,3049
12264,3184,3057
12276,3194,3076
12288,3212,3079
12300,3213,3093
12312,3197,3083
12323,3211,3095
12335,3226,3098
12347,3234,3091
12359,3248,3083
12371,3239,3075
12383,3234,3063
12394,3229,3064
12406,3219,3065
12418,3197,3083
12430,3195,3118
12442,3194,3157
12454,3201,3217
12465,3208,3279
12477,3212,3337
12489,3215,3385
12501,3227,3433
12513,3232,3480
12525,3255,3502
12536,3273,3511
12548,3287,3511
12560,3288,3509
12572,3297,3495
12584,3298,3490
12596,3302,3457
12607,3287,3442
12619,3290,3408
12631,3283,3401
12643,3285,3392
12655,3281,3370
12666,3291,3354
12678,3304,3323
12690,3297,3304
12702,3299,3288
12714,3290,3271
12726,3284,3258
12737,3283,3254
12749,3274,3248
12761,3271,3236
12773,3268,3238
12785,3268,3239
12797,3260,3239
12808,3245,3222
12820,3245,3210
12832,3233,3193
12844,3223,3186
12856,3223,3170
12868,3224,3162
12879,3221,3140
12891,3222,3127
12903,3229,3122
12915,3244,3118
12927,3249,3102
12939,3246,3114
12950,3252,3121
12962,3238,3120
12974,3234,3122
12986,3227,3111
12998,3222,3092
13010,3215,3090
13021,3214,3068
13033,3210,3067
13045,3210,3061
13057,3214,3060
13069,3218,3067
13081,3220,3082
13092,3207,3088
13104,3201,3097
13116,3194,3102
13128,3204,3110
13140,3212,3111
13152,3206,3109
13163,3204,3109
13175,3202,3101
13187,3179,3096
13199,3168,3077
13211,3170,3069
13223,3163,3059
13234,3172,3059
13246,3177,3064
13258,3197,3070
13270,3200,3078
13282,3209,3097
13294,3208,3109
13305,3204,3115
13317,3205,3114
13329,3207,3110
13341,3203,3109
13353,3193,3114
13364,3195,3116
13376,3186,3147
13388,3184,3187
13400,3175,3224
13412,3181,3272
13424,3195,3346
13435,3203,3374
13447,3221,3424
13459,3245,3462
13471,3261,3484
13483,3287,3489
13495,3302,3498
13506,3315,3495
13518,3328,3492
13530,3326,3482
13542,3319,3473
13554,3307,3444
13566,3293,3420
13577,3301,3403
13589,3293,3387
13601,3286,3361
13613,3284,3331
13625,3290,3318
13637,3286,3282
13648,3289,3259
13660,3291,3221
13672,3300,3201
13684,3309,3184
13696,3317,3175
13708,3315,3158
13719,3304,3146
13731,3296,3141
13743,3282,3142
13755,3268,3137
13767,3266,3155
13779,3256,3163
13790,3249,3162
13802,3247,3174
13814,3235,3187
13826,3241,3191
13838,3236,3197
13850,3231,3193
13861,3218,3180
13873,3214,3173
13885,3209,3151
13897,3209,3142
13909,3213,3130
13921,3207,3111
13932,3197,3097
13944,3199,3095
13956,3184,3090
13968,3194,3093
13980,3190,3098
13992,3208,3113
14003,3209,3115
14015,3223,3125
14027,3249,3108
14039,3259,3104
14051,3268,3104
14063,3295,3116
14074,3277,3112
14086,3283,3114
14098,3276,3110
14110,3262,3105
14122,3247,3086
14133,3236,3076
14145,3224,3064
14157,3211,3046
14169,3208,3049
14181,3208,3042
14193,3203,3042
14204,3210,3057
14216,3202,3061
14228,3212,3075
14240,3209,3090
14252,3188,3101
14264,3173,3133
14275,3158,3154
14287,3144,3181
14299,3144,3210
14311,3146,3250
14323,3161,3275
14335,3195,3332
14346,3224,3389
14358,3252,3450
14370,3281,3508
14382,3302,3561
14394,3321,3615
14406,3333,3651
14417,3344,3682
14429,3349,3695
14441,3350,3685
14453,3354,3665
14465,3334,3618
14477,3319,3573
14488,3288,3522
14500,3266,3481
14512,3266,3448
14524,3258,3425
14536,3268,3402
14548,3280,3389
14559,3285,3362
14571,3284,3346
14583,3282,3308
14595,3284,3276
14607,3289,3248
14619,3280,3240
14630,3282,3221
14642,3293,3218
14654,3294,3213
14666,3292,3218
14678,3291,3222
14689,3289,3223
14701,3287,3224
14713,3291,3231
14725,3294,3221
14737,3282,3214
14749,3273,3206
14760,3267,3194
14772,3266,3191
14784,3272,3187
14796,3274,3180
14808,3282,3176
14820,3264,3170
14831,3255,3169
14843,3247,3154
14855,3241,3145
14867,3242,3152
14879,3227,3137
14891,3222,3140
14902,3223,3148
14914,3215,3144
14926,3226,3144
14938,3222,3144
14950,3222,3150
14962,3207,3152
14973,3214,3154
14985,3211,3136
14997,3204,3140
15009,3206,3133
15021,3197,3142
15033,3204,3140
15044,3205,3123
15056,3204,3130
15068,3210,3113
15080,3211,3116
15092,3207,3101
15104,3210,3092
15115,3197,3083
15127,3185,3077
15139,3191,3068
15151,3194,3073
15163,3201,3077
15175,3206,3093
15186,3204,3078
15198,3210,3071
15210,3206,3062
15222,3213,3044
15234,3220,3041
15246,3209,3028
15257,3211,3041
15269,3183,3073
15281,3181,3117
15293,3178,3172
15305,3179,3241
15316,3182,3304
15328,3205,3370
15340,3247,3438
15352,3279,3491
15364,3306,3526
15376,3330,3550
15387,3351,3556
15399,3370,3541
15411,3373,3524
15423,3376,3510
15435,3388,3489
15447,3381,3461
15458,3377,3437
15470,3370,3402
15482,3371,3387
15494,3376,3376
15506,3372,3361
15518,3369,3359
15529,3360,3351
15541,3354,3354
15553,3348,3343
15565,3333,3332
15577,3329,3330
15589,3321,3318
15600,3316,3303
15612,3318,3293
15624,3311,3265
15636,3307,3245
15648,3298,3222
15660,3301,3208
15671,3284,3197
15683,3280,3180
15695,3276,3182
15707,3279,3195
15719,3282,3194
15731,3287,3193
15742,3297,3201
15754,3304,3192
15766,3307,3180
15778,3298,3169
15790,3278,3159
15802,3275,3140
15813,3269,3148
15825,3258,3141
15837,3254,3131
15849,3257,3124
15861,3250,3124
15872,3244,3123
15884,3257,3139
15896,3255,3144
15908,3262,3148
15920,3271,3155
15932,3267,3166
15943,3270,3175
15955,3268,3171
15967,3254,3173
15979,3255,3160
15991,3240,3146
16003,3235,3141
16014,3222,3132
16026,3198,3138
16038,3197,3134
16050,3186,3140
16062,3180,3154
16074,3181,3176
16085,3182,3195
16097,3186,3192
16109,3198,3183
16121,3206,3149
16133,3210,3135
16145,3214,3116
16156,3226,3115
16168,3221,3126
16180,3230,3158
16192,3223,3193
16204,3226,3255
16216,3231,3303
16227,3253,3349
16239,3260,3399
16251,3279,3436
16263,3289,3470
16275,3312,3492
16287,3306,3501
16298,3298,3487
16310,3302,3488
16322,3321,3480
16334,3316,3458
16346,3310,3437
16358,3307,3414
16369,3295,3404
16381,3291,3370
16393,3298,3338
16405,3297,3302
16417,3292,3275
16429,3299,3249
16440,3309,3222
16452,3302,3200
16464,3312,3190
16476,3316,3184
16488,3319,3190
16499,3312,3186
16511,3308,3175
16523,3302,3176
16535,3307,3172
16547,3299,3177
16559,3298,3189
16570,3290,3178
16582,3289,3173
16594,3261,3167
16606,3245,3164
16618,3234,3167
16630,3231,3162
16641,3230,3155
16653,3231,3149
16665,3240,3134
16677,3242,3121
16689,3236,3115
16701,3237,3096
16712,3227,3095
16724,3224,3093
16736,3216,3092
16748,3208,3099
16760,3202,3108
16772,3209,3117
16784,3211,3135
16795,3198,3131
16807,3194,3127
16819,3205,3133
16831,3200,3120
16843,3208,3118
16855,3216,3118
16866,3215,3114
16878,3213,3102
16890,3219,3094
16902,3219,3082
16914,3216,3062
16926,3204,3051
16937,3200,3045
16949,3196,3031
16961,3198,3020
16973,3202,3019
16985,3217,3001
16997,3224,2991
17008,3219,2969
17020,3229,2965
17032,3232,2960
17044,3228,2975
17056,3226,3013
17068,3218,3067
17079,3229,3138
17091,3236,3193
17103,3253,3262
17115,3260,3307
17127,3270,3361
17139,3289,3405
17150,3305,3436
17162,3314,3463
17174,3335,3477
17186,3332,3478
17198,3333,3474
17209,3332,3474
17221,3329,3470
17233,3325,3463
17245,3331,3461
17257,3348,3461
17269,3343,3448
17280,3348,3437
17292,3346,3429
17304,3332,3410
17316,3319,3389
17328,3314,3369
17340,3311,3343
17351,3315,3315
17363,3310,3285
17375,3314,3279
17387,3314,3259
17399,3322,3247
17411,3320,3238
17422,3317,3242
17434,3326,3242
17446,3328,3233
17458,3325,3241
17470,3314,3235
17482,3322,3236
17493,3306,3231
17505,3298,3222
17517,3306,3220
17529,3296,3215
17541,3294,3220
17553,3293,3217
17564,3296,3222
17576,3296,3224
17588,3285,3225
17600,3275,3212
17612,3265,3213
17624,3254,3195
17635,3250,3182
17647,3239,3172
17659,3233,3166
17671,3236,3154
17683,3248,3149
17695,3253,3158
17706,3260,3152
17718,3257,3155
17730,3258,3161
17742,3258,3153
17754,3254,3159
17766,3242,3150
17777,3230,3152
17789,3224,3145
17801,3222,3141
17813,3207,3139
17825,3226,3152
17837,3228,3163
17848,3234,3163
17860,3223,3174
17872,3217,3180
17884,3221,3176
17896,3219,3178
17908,3213,3181
17919,3203,3199
17931,3200,3240
17943,3194,3268
17955,3204,3307
17967,3213,3375
17979,3230,3427
17990,3254,3479
18002,3285,3517
18014,3296,3559
18026,3312,3572
18038,3319,3591
18050,3330,3585
18061,3330,3579
18073,3327,3568
18085,3332,3554
18097,3333,3536
18109,3328,3503
18121,3325,3494
18132,3331,3479
18144,3329,3457
18156,3329,3438
18168,3337,3413
18180,3349,3391
18192,3350,3365
18203,3354,3335
18215,3346,3317
18227,3339,3296
18239,3324,3280
18251,3305,3264
18262,3313,3272
18274,3301,3268
18286,3292,3268
18298,3276,3279
18310,3266,3271
18322,3258,3267
18333,3255,3255
18345,3256,3248
18357,3254,3233
18369,3251,3222
18381,3262,3216
18393,3262,3204
18404,3264,3200
18416,3259,3187
18428,3261,3185
18440,3237,3160
18452,3239,3156
18464,3223,3158
18475,3218,3162
18487,3216,3167
18499,3211,3171
18511,3224,3167
18523,3222,3161
18535,3213,3166
18546,3216,3158
18558,3212,3162
18570,3214,3153
18582,3214,3148
18594,3210,3141
18606,3206,3144
18617,3210,3127
18629,3198,3130
18641,3204,3126
18653,3210,3128
18665,3206,3124
18677,3199,3121
18688,3190,3115
18700,3180,3107
18712,3176,3123
18724,3170,3131
18736,3170,3124
18748,3165,3109
18759,3165,3114
18771,3160,3118
18783,3153,3146
18795,3160,3181
18807,3154,3238
18819,3166,3295
18830,3170,3369
18842,3169,3438
18854,3174,3503
18866,3191,3581
18878,3204,3636
18890,3221,3677
18901,3230,3702
18913,3244,3705
18925,3262,3693
18937,3277,3658
18949,3293,3637
18960,3297,3595
18972,3311,3565
18984,3312,3537
18996,3313,3513
19008,3317,3500
19020,3324,3477
19031,3313,3462
19043,3313,3437
19055,3300,3404
19067,3304,3374
19079,3288,3344
19091,3281,3302
19102,3267,3278
19114,3275,3260
19126,3271,3248
19138,3272,3243
19150,3275,3239
19162,3254,3240
19173,3251,3244
19185,3247,3248
19197,3242,3256
19209,3230,3254
19221,3217,3262
19233,3218,3270
19244,3211,3276
19256,3215,3276
19268,3231,3274
19280,3235,3269
19292,3239,3255
19304,3249,3240
19315,3249,3225
19327,3235,3215
19339,3228,3200
19351,3213,3187
19363,3210,3194
19375,3205,3179
19386,3197,3175
19398,3180,3175
19410,3183,3165
19422,3194,3174
19434,3206,3184
19446,3197,3185
19457,3186,3183
19469,3188,3198
19481,3192,3199
19493,3186,3189
19505,3186,3189
19517,3188,3197
19528,3188,3204
19540,3186,3209
19552,3194,3217
19564,3205,3218
19576,3212,3217
19588,3214,3211
19599,3214,3198
19611,3214,3187
19623,3217,3173
19635,3212,3155
19647,3207,3145
19659,3198,3145
19670,3203,3164
19682,3198,3201
19694,3206,3250
19706,3212,3303
19718,3222,3350
19730,3236,3404
19741,3238,3450
19753,3256,3499
19765,3270,3532
19777,3276,3556
19789,3293,3570
19801,3306,3580
19812,3317,3569
19824,3333,3562
19836,3330,3543
19848,3331,3529
19860,3327,3511
19872,3322,3481
19883,3318,3459
19895,3314,3444
19907,3315,3419
19919,3317,3410
19931,3308,3385
19943,3299,3374
19954,3292,3342
19966,3294,3328
19978,3290,3318
19990,3294,3307
20002,3285,3303
20014,3290,3294
20025,3282,3312
20037,3272,3292
20049,3261,3289
20061,3262,3281
20073,3269,3276
20085,3282,3268
20096,3286,3265
20108,3286,3262
20120,3286,3255
20132,3287,3261
20144,3282,3240
20156,3281,3235
20167,3288,3241
20179,3278,3220
20191,3275,3207
20203,3273,3189
20215,3258,3165
20227,3251,3152
20238,3240,3146
20250,3227,3150
20262,3220,3154
20274,3223,3154
20286,3213,3161
20298,3211,3159
20309,3227,3172
20321,3225,3167
20333,3229,3167
20345,3226,3147
20357,3223,3141
20369,3216,3144
20380,3213,3143
20392,3205,3140
20404,3207,3134
20416,3204,3128
20428,3209,3134
20440,3218,3143
20451,3220,3144
20463,3216,3144
20475,3222,3144
20487,3218,3121
20499,3206,3111
20511,3201,3098
20522,3197,3091
20534,3182,3115
20546,3175,3151
20558,3181,3200
20570,3175,3252
20582,3181,3320
20593,3191,3377
20605,3206,3432
20617,3213,3474
20629,3245,3520
20641,3273,3547
20653,3295,3562
20664,3314,3565
20676,3334,3574
20688,3347,3570
20700,3355,3572
20712,3357,3556
20724,3359,3540
20735,3350,3523
20747,3338,3511
20759,3327,3484
20771,3313,3460
20783,3312,3441
20795,3303,3424
20806,3296,3405
20818,3289,3375
20830,3295,3353
20842,3283,3327
20854,3279,3284
20866,3266,3264
20877,3274,3250
20889,3266,3229
20901,3270,3215
20913,3276,3222
20925,3280,3216
20937,3282,3216
20948,3293,3228
20960,3281,3226
20972,3297,3238
20984,3281,3235
20996,3285,3240
21008,3279,3234
21019,3286,3234
21031,3280,3230
21043,3260,3212
21055,3264,3183
21067,3248,3179
21079,3248,3162
21090,3250,3160
21102,3238,3142
21114,3247,3135
21126,3238,3134
21138,3236,3134
21150,3232,3136
21161,3221,3132
21173,3223,3140
21185,3216,3127
21197,3213,3123
21209,3216,3123
21221,3220,3114
21232,3213,3112
21244,3213,3108
21256,3210,3106
21268,3206,3103
21280,3207,3101
21292,3195,3097
21303,3203,3102
21315,3188,3095
21327,3179,3088
21339,3183,3089
21351,3186,3092
21363,3179,3093
21374,3192,3099
21386,3195,3093
21398,3182,3085
21410,3186,3081
21422,3180,3069
21433,3178,3060
21445,3169,3070
21457,3161,3095
21469,3155,3142
21481,3158,3190
21493,3174,3246
21504,3196,3305
21516,3226,3360
21528,3246,3412
21540,3274,3464
21552,3299,3496
21564,3324,3530
21575,3347,3556
21587,3369,3568
21599,3373,3551
21611,3378,3546
21623,3393,3525
21635,3382,3508
21646,3381,3479
21658,3373,3469
21670,3354,3434
21682,3345,3407
21694,3330,3382
21706,3322,3367
21717,3312,3341
21729,3302,3316
21741,3288,3313
21753,3279,3301
21765,3284,3302
21777,3288,3308
21788,3294,3320
21800,3294,3317
21812,3310,3330
21824,3327,3343
21836,3344,3349
21848,3336,3339
21859,3332,3313
21871,3335,3292
21883,3323,3269
21895,3324,3247
21907,3309,3237
21919,3291,3222
21930,3291,3208
21942,3276,3196
21954,3277,3191
21966,3282,3188
21978,3264,3171
21990,3243,3145
22001,3231,3126
22013,3212,3116
22025,3210,3103
22037,3213,3097
22049,3215,3101
22061,3203,3094
22072,3181,3107
22084,3173,3110
22096,3176,3111
22108,3169,3115
22120,3163,3115
22132,3159,3101
22143,3171,3112
22155,3178,3102
22167,3174,3092
22179,3187,3085
22191,3192,3087
22203,3193,3078
22214,3192,3077
22226,3186,3072
22238,3186,3073
22250,3191,3073
22262,3180,3068
22274,3185,3076
22285,3188,3077
22297,3185,3086
22309,3182,3101
22321,3188,3092
22333,3184,3099
22345,3185,3094
22356,3170,3072
22368,3164,3060
22380,3163,3032
22392,3161,3025
22404,3160,3024
22416,3156,3042
22427,3155,3063
22439,3147,3107
22451,3154,3161
22463,3170,3221
22475,3195,3282
22486,3213,3326
22498,3233,3377
22510,3246,3407
22522,3257,3440
22534,3286,3458
22546,3295,3441
22557,3293,3419
22569,3297,3403
22581,3305,3388
22593,3310,3378
22605,3310,3358
22617,3298,3347
22628,3290,3343
22640,3281,3341
22652,3271,3337
22664,3259,3328
22676,3263,3324
22688,3245,3310
22699,3240,3291
22711,3242,3277
22723,3242,3251
22735,3235,3234
22747,3240,3221
22759,3238,3212
22770,3233,3206
22782,3225,3201
22794,3210,3196
22806,3195,3194
22818,3176,3199
22830,3155,3199
22841,3161,3193
22853,3165,3178
22865,3186,3181
22877,3210,3170
22889,3237,3182
22901,3254,3181
22912,3252,3165
22924,3247,3161
22936,3241,3143
22948,3242,3126
22960,3227,3111
22972,3220,3093
22984,3211,3098
22995,3214,3082
23007,3206,3073
23019,3209,3081
23031,3217,3092
23043,3225,3098
23054,3225,3109
23066,3232,3122
23078,3236,3123
23090,3243,3128
23102,3245,3132
23114,3252,3122
23125,3245,3122
23137,3245,3120
23149,3240,3102
23161,3229,3092
23173,3202,3079
23185,3197,3074
23197,3190,3065
23208,3179,3067
23220,3180,3066
23232,3178,3067
23244,3181,3075
23256,3184,3071
23268,3197,3088
23279,3205,3090
23291,3211,3086
23303,3207,3080
23315,3208,3083
23327,3206,3088
23338,3207,3106
23350,3197,3135
23362,3198,3174
23374,3199,3212
23386,3205,3261
23398,3202,3313
23409,3213,3370
23421,3239,3401
23433,3253,3438
23445,3268,3471
23457,3277,3484
23469,3293,3490
23480,3294,3480
23492,3305,3476
23504,3314,3463
23516,3320,3442
23528,3318,3415
23540,3332,3407
23551,3318,3384
23563,3329,3380
23575,3327,3365
23587,3313,3344
23599,3304,3323
23611,3311,3304
23622,3313,3275
23634,3311,3250
23646,3314,3237
23658,3303,3210
23670,3302,3201
23682,3302,3208
23693,3282,3196
23705,3279,3204
23717,3275,3191
23729,3255,3184
23741,3260,3175
23753,3262,3161
23764,3266,3165
23776,3273,3168
23788,3276,3179
23800,3284,3182
23812,3288,3173
23824,3293,3169
23835,3286,3151
23847,3286,3143
23859,3279,3129
23871,3257,3132
23883,3252,3122
23895,3257,3126
23906,3246,3124
23918,3243,3127
23930,3234,3120
23942,3226,3125
23954,3217,3120
23966,3212,3123
23977,3220,3138
23989,3218,3134
24001,3226,3131
24013,3221,3117
24025,3228,3105
24037,3232,3101
24048,3229,3098
24060,3227,3091
24072,3224,3091
24084,3214,3098
24096,3208,3099
24108,3204,3099
24119,3194,3099
24131,3194,3098
24143,3188,3103
24155,3191,3109
24167,3195,3125
24179,3197,3112
24190,3208,3120
24202,3199,3124
24214,3193,3125
24226,3186,3114
24238,3177,3110
24250,3171,3104
24261,3151,3103
24273,3133,3109
24285,3131,3138
24297,3128,3158
24309,3132,3204
24321,3144,3243
24332,3163,3287
24344,3186,3337
24356,3211,3386
24368,3229,3421
24380,3244,3452
24392,3251,3468
24403,3274,3476
24415,3287,3481
24427,3305,3471
24439,3312,3464
24451,3316,3457
24463,3321,3441
24474,3314,3440
24486,3310,3420
24498,3296,3405
24510,3283,3385
24522,3285,3366
24534,3296,3348
24545,3302,3321
24557,3319,3291
24569,3323,3282
24581,3315,3258
24593,3315,3237
24605,3312,3236
24616,3314,3231
24628,3302,3217
24640,3297,3212
24652,3297,3207
24664,3307,3204
24676,3313,3218
24687,3301,3210
24699,3290,3207
24711,3269,3210
24723,3250,3210
24735,3247,3201
24747,3250,3193
24758,3246,3186
24770,3253,3171
24782,3262,3157
24794,3272,3144
24806,3274,3143
24818,3270,3133
24829,3266,3126
24841,3268,3131
24853,3250,3122
24865,3253,3118
24877,3256,3117
24889,3241,3109
24900,3236,3103
24912,3227,3096
24924,3223,3109
24936,3221,3119
24948,3214,3122
24960,3218,3129
24971,3219,3133
24983,3213,3124
24995,3218,3100
25007,3231,3107
25019,3236,3107
25031,3238,3109
25042,3238,3111
25054,3238,3101
25066,3233,3093
25078,3236,3087
25090,3226,3084
25102,3218,3087
25113,3214,3093
25125,3206,3093
25137,3205,3087
25149,3212,3107
25161,3218,3119
25173,3218,3122
25184,3227,3111
25196,3216,3104
25208,3213,3099
25220,3208,3092
25232,3194,3098
25244,3188,3109
25255,3190,3131
25267,3182,3161
25279,3191,3206
25291,3203,3252
25303,3214,3304
25315,3235,3348
25326,3236,3399
25338,3241,3444
25350,3258,3472
25362,3270,3484
25374,3291,3500
25386,3301,3500
25397,3311,3504
25409,3325,3484
25421,3344,3481
25433,3345,3457
25445,3349,3433
25457,3358,3420
25468,3352,3381
25480,3350,3342
25492,3343,3318
25504,3342,3294
25516,3344,3298
25528,3345,3298
25539,3345,3303
25551,3340,3309
25563,3330,3305
25575,3327,3309
25587,3320,3297
25599,3308,3300
25610,3294,3286
25622,3288,3279
25634,3280,3261
25646,3258,3239
25658,3244,3237
25670,3242,3227
25681,3235,3213
25693,3227,3221
25705,3234,3212
25717,3233,3201
25729,3250,3196
25741,3246,3176
25752,3255,3181
25764,3258,3175
25776,3246,3164
25788,3242,3162
25800,3231,3158
25812,3225,3156
25823,3228,3152
25835,3234,3153
25847,3223,3154
25859,3228,3154
25871,3232,3144
25883,3219,3135
25894,3218,3136
25906,3215,3120
25918,3218,3120
25930,3219,3113
25942,3217,3100
25954,3214,3100
25965,3210,3101
25977,3207,3110
25989,3194,3107
26001,3201,3104
26013,3197,3101
26025,3197,3106
26037,3197,3094
26048,3193,3096
26060,3180,3093
26072,3197,3089
26084,3208,3100
26096,3216,3087
26108,3237,3093
26119,3255,3081
26131,3266,3060
26143,3293,3043
26155,3306,3031
26167,3308,3016
26179,3307,3018
26190,3292,3021
26202,3276,3021
26214,3252,3047
26226,3235,3091
26238,3210,3142
26250,3191,3203
26261,3179,3260
26273,3185,3312
26285,3201,3373
26297,3228,3422
26309,3261,3453
26321,3285,3479
26332,3302,3485
26344,3316,3489
26356,3326,3483
26368,3322,3475
26380,3329,3472
26392,3321,3454
26403,3313,3447
26415,3290,3424
26427,3275,3406
26439,3251,3390
26451,3238,3362
26463,3219,3346
26474,3214,3312
26486,3197,3282
26498,3194,3261
26510,3189,3253
26522,3198,3240
26534,3198,3238
26545,3206,3231
26557,3222,3226
26569,3237,3215
26581,3250,3216
26593,3254,3210
26605,3253,3209
26617,3252,3200
26628,3256,3200
26640,3261,3196
26652,3269,3188
26664,3274,3179
26676,3280,3172
26688,3269,3146
26699,3267,3148
26711,3263,3130
26723,3260,3120
26735,3254,3111
26747,3251,3102
26759,3229,3086
26770,3211,3083
26782,3205,3063
26794,3191,3069
26806,3175,3074
26818,3173,3078
26830,3172,3088
26841,3166,3083
26853,3178,3094
26865,3178,3106
26877,3183,3109
26889,3192,3120
26901,3204,3126
26912,3203,3120
26924,3213,3110
26936,3201,3103
26948,3198,3100
26960,3193,3096
26972,3177,3104
26983,3164,3095
26995,3146,3098
27007,3137,3101
27019,3135,3101
27031,3144,3104
27043,3155,3114
27054,3160,3111
27066,3173,3112
27078,3188,3113
27090,3193,3122
27102,3192,3131
27114,3190,3149
27125,3198,3173
27137,3193,3197
27149,3196,3239
27161,3206,3279
27173,3217,3341
27185,3234,3379
27197,3259,3426
27208,3278,3452
27220,3296,3482
27232,3317,3502
27244,3342,3503
27256,3354,3496
27268,3357,3475
27279,3359,3451
27291,3354,3431
27303,3349,3411
27315,3344,3391
27327,3329,3371
27338,3330,3359
27350,3337,3361
27362,3336,3352
27374,3349,3351
27386,3349,3345
27398,3349,3343
27409,3345,3332
27421,3344,3320
27433,3341,3311
27445,3328,3296
27457,3317,3295
27469,3321,3298
27481,3309,3284
27492,3303,3284
27504,3288,3290
27516,3287,3282
27528,3288,3280
27540,3288,3273
27552,3284,3267
27563,3290,3259
27575,3291,3257
27587,3296,3240
27599,3290,3230
27611,3290,3211
27623,3286,3207
27634,3292,3201
27646,3289,3191
27658,3280,3179
27670,3272,3179
27682,3261,3172
27694,3247,3171
27705,3234,3168
27717,3246,3162
27729,3250,3163
27741,3259,3162
27753,3262,3150
27765,3252,3146
27776,3241,3137
27788,3242,3135
27800,3244,3160
27812,3229,3159
27824,3226,3161
27836,3226,3165
27847,3216,3161
27859,3200,3148
27871,3200,3156
27883,3203,3157
27895,3214,3151
27907,3236,3151
27918,3234,3151
27930,3242,3150
27942,3251,3145
27954,3258,3145
27966,3253,3120
27978,3251,3109
27989,3238,3101
28001,3227,3106
28013,3214,3126
28025,3201,3164
28037,3211,3216
28049,3200,3288
28060,3221,3356
28072,3241,3424
28084,3256,3476
28096,3284,3515
28108,3297,3542
28120,3296,3543
28131,3310,3549
28143,3311,3542
28155,3308,3533
28167,3310,3519
28179,3321,3511
28191,3307,3490
28202,3314,3472
28214,3316,3456
28226,3321,3429
28238,3322,3423
28250,3340,3409
28262,3352,3397
28273,3357,3381
28285,3362,3363
28297,3360,3331
28309,3351,3305
28321,3328,3293
28333,3324,3269
28344,3319,3254
28356,3317,3246
28368,3310,3240
28380,3304,3232
28392,3305,3230
28404,3295,3232
28415,3281,3235
28427,3268,3224
28439,3258,3225
28451,3245,3218
28463,3245,3211
28475,3242,3201
28486,3247,3212
28498,3247,3206
28510,3246,3201
28522,3229,3188
28534,3209,3198
28546,3207,3194
28558,3199,3197
28569,3190,3198
28581,3193,3194
28593,3191,3189
28605,3192,3174
28617,3187,3179
28629,3182,3168
28640,3179,3161
28652,3188,3161
28664,3203,3162
28676,3217,3156
28688,3238,3159
28700,3250,3153
28711,3262,3158
28723,3268,3158
28735,3277,3162
28747,3277,3156
28759,3269,3159
28771,3262,3161
28783,3243,3161
28794,3237,3149
28806,3215,3145
28818,3208,3146
28830,3207,3152
28842,3194,3150
28854,3180,3133
28865,3175,3131
28877,3163,3111
28889,3158,3109
28901,3140,3105
28913,3132,3117
28925,3132,3144
28936,3141,3191
28948,3149,3246
28960,3167,3303
28972,3182,3374
28984,3194,3432
28996,3228,3481
29007,3232,3525
29019,3244,3561
29031,3253,3566
29043,3257,3570
29055,3265,3565
29067,3287,3563
29078,3286,3541
29090,3289,3532
29102,3308,3517
29114,3298,3505
29126,3291,3502
29138,3285,3499
29149,3286,3485
29161,3280,3459
29173,3274,3447
29185,3286,3439
29197,3276,3416
29209,3285,3407
29220,3292,3372
29232,3292,3358
29244,3296,3342
29256,3295,3320
29268,3287,3308
29280,3267,3295
29291,3274,3301
29303,3259,3295
29315,3232,3295
29327,3221,3301
29339,3211,3306
29351,3195,3307
29362,3204,3313
29374,3201,3306
29386,3203,3295
29398,3215,3271
29410,3213,3262
29422,3213,3238
29433,3206,3225
29445,3206,3202
29457,3210,3183
29469,3214,3158
29481,3217,3140
29493,3219,3136
29504,3222,3123
29516,3221,3127
29528,3224,3109
29540,3220,3124
29552,3226,3121
29564,3220,3126
29575,3229,3131
29587,3230,3140
29599,3221,3147
29611,3207,3145
29623,3197,3149
29635,3203,3154
29646,3205,3158
29658,3194,3157
29670,3199,3165
29682,3201,3165
29694,3214,3173
29706,3211,3175
29717,3212,3186
29729,3218,3183
29741,3214,3163
29753,3219,3157
29765,3211,3146
29777,3201,3147
29788,3175,3157
29800,3169,3194
29812,3170,3237
29824,3176,3297
29836,3182,3360
29848,3191,3431
29859,3204,3494
29871,3235,3551
29883,3256,3585
29895,3261,3604
29907,3287,3607
29919,3294,3595
29930,3300,3574
29942,3312,3550
29954,3313,3525
29966,3320,3502
29978,3318,3496
29990,3324,3494
