timestamp_ms,ppg1,ppg2
0,3021,2916
12,3043,2872
23,3090,2869
35,3147,2876
47,3201,2914
59,3241,2979
71,3273,3035
82,3308,3106
94,3326,3173
106,3324,3230
118,3311,3254
130,3291,3282
142,3257,3292
153,3228,3278
165,3202,3262
177,3189,3228
189,3157,3190
201,3131,3137
212,3117,3097
224,3101,3068
236,3079,3035
248,3070,3011
260,3074,2995
272,3097,2976
283,3119,2973
295,3155,2959
307,3198,2957
319,3227,2961
331,3255,2965
342,3274,2979
354,3292,2990
366,3283,3004
378,3284,3015
390,3283,3041
402,3277,3057
413,3271,3050
425,3293,3075
437,3319,3094
449,3377,3164
461,3439,3267
472,3511,3433
484,3549,3613
496,3569,3823
508,3549,3982
520,3506,4080
532,3445,4095
543,3369,4095
555,3279,4053
567,3210,3948
579,3150,3812
591,3090,3659
602,3060,3494
614,3033,3357
626,3016,3234
638,3019,3148
650,3016,3069
662,3020,3005
673,3040,2955
685,3082,2936
697,3117,2921
709,3159,2915
721,3190,2939
732,3207,2967
744,3225,3018
756,3217,3072
768,3206,3115
780,3201,3181
792,3196,3216
803,3209,3249
815,3201,3261
827,3191,3270
839,3181,3262
851,3156,3243
863,3145,3220
874,3130,3195
886,3119,3168
898,3117,3143
910,3106,3109
922,3103,3071
933,3092,3053
945,3114,3012
957,3123,2988
969,3139,2981
981,3146,2976
993,3156,2969
1004,3152,2969
1016,3146,2979
1028,3148,2983
1040,3143,2990
1052,3132,2996
1063,3135,3002
1075,3151,3028
1087,3176,3046
1099,3228,3067
1111,3304,3124
1123,3402,3210
1134,3513,3383
1146,3612,3601
1158,3723,3829
1170,3884,4041
1182,4034,4095
1194,4095,4095
1205,4095,4095
1217,4095,4095
1229,4026,4095
1241,3846,4094
1253,3659,3943
1264,3483,3770
1276,3326,3625
1288,3196,3477
1300,3109,3362
1312,3021,3276
1324,2956,3194
1335,2904,3132
1347,2879,3093
1359,2887,3059
1371,2917,3042
1383,2978,3060
1395,3046,3057
1406,3106,3063
1418,3156,3106
1430,3203,3117
1442,3231,3140
1454,3260,3166
1466,3260,3187
1477,3248,3209
1489,3222,3206
1501,3206,3201
1513,3178,3179
1525,3155,3160
1536,3139,3112
1548,3130,3082
1560,3131,3046
1572,3122,3000
1584,3114,2986
1596,3110,2960
1607,3100,2943
1619,3110,2924
1631,3118,2904
1643,3150,2892
1655,3158,2895
1667,3155,2875
1678,3166,2886
1690,3174,2878
1702,3178,2880
1714,3183,2898
1726,3199,2922
1737,3197,2926
1749,3205,2940
1761,3204,2957
1773,3222,2972
1785,3285,3013
1797,3366,3100
1808,3463,3232
1820,3544,3424
1832,3624,3641
1844,3717,3861
1856,3813,4040
1868,3869,4095
1879,3861,4095
1891,3785,4095
1903,3663,4063
1915,3523,3949
1927,3368,3794
1939,3225,3619
1950,3120,3479
1962,3031,3349
1974,3000,3254
1986,2982,3172
1998,2979,3132
2009,2974,3076
2021,2983,3067
2033,2995,3045
2045,3009,3034
2057,3040,3026
2069,3078,3053
2080,3109,3082
2092,3121,3094
2104,3143,3118
2116,3170,3139
2128,3172,3164
2140,3182,3179
2151,3169,3182
2163,3143,3189
2175,3108,3186
2187,3069,3159
2199,3052,3124
2211,3040,3097
2222,3049,3062
2234,3070,3034
2246,3088,3000
2258,3085,2974
2270,3098,2953
2281,3096,2927
2293,3110,2922
2305,3116,2914
2317,3120,2922
2329,3125,2929
2341,3134,2920
2352,3153,2941
2364,3166,2949
2376,3174,2956
2388,3167,2964
2400,3158,2964
2412,3172,2979
2423,3184,2981
2435,3210,3009
2447,3277,3046
2459,3342,3117
2471,3438,3252
2483,3527,3432
2494,3615,3636
2506,3731,3832
2518,3845,4004
2530,3911,4095
2542,3914,4095
2554,3852,4095
2565,3722,4091
2577,3550,3986
2589,3389,3855
2601,3236,3710
2613,3117,3565
2624,3028,3430
2636,2966,3310
2648,2923,3214
2660,2914,3127
2672,2927,3077
2684,2941,3041
2695,2959,3003
2707,2981,2987
2719,3026,2990
2731,3076,3006
2743,3117,3042
2755,3147,3081
2766,3164,3117
2778,3179,3149
2790,3196,3187
2802,3177,3216
2814,3180,3221
2826,3154,3232
2837,3127,3220
2849,3111,3201
2861,3091,3171
2873,3078,3157
2885,3067,3114
2896,3065,3082
2908,3076,3055
2920,3087,3032
2932,3099,2997
2944,3123,3004
2956,3141,2992
2967,3151,2991
2979,3158,2999
2991,3164,2992
3003,3164,2989
3015,3157,2993
3027,3149,2981
3038,3158,2981
3050,3156,2993
3062,3168,3003
3074,3189,3013
3086,3223,3054
3098,3265,3137
3109,3341,3254
3121,3419,3409
3133,3518,3600
3145,3649,3768
3157,3806,3941
3169,3924,4061
3180,3993,4095
3192,3981,4095
3204,3875,4086
3216,3747,4013
3228,3570,3876
3239,3396,3725
3251,3251,3589
3263,3140,3460
3275,3051,3356
3287,2994,3263
3299,2966,3184
3310,2951,3113
3322,2954,3073
3334,2975,3027
3346,2997,3015
3358,3024,3012
3370,3058,3018
3381,3083,3034
3393,3087,3073
3405,3111,3113
3417,3130,3144
3429,3155,3175
3441,3175,3178
3452,3173,3183
3464,3163,3190
3476,3138,3172
3488,3107,3154
3500,3089,3134
3511,3061,3101
3523,3067,3065
3535,3066,3028
3547,3072,3016
3559,3084,2987
3571,3113,2967
3582,3129,2965
3594,3128,2968
3606,3135,2964
3618,3144,2953
3630,3163,2963
3642,3167,2960
3653,3185,2958
3665,3197,2959
3677,3187,2957
3689,3181,2966
3701,3174,2994
3713,3182,3005
3724,3219,3045
3736,3275,3119
3748,3386,3242
3760,3508,3423
3772,3655,3623
3783,3852,3819
3795,4053,3987
3807,4095,4095
3819,4095,4095
3831,4095,4095
3843,4015,4095
3854,3836,4064
3866,3620,3950
3878,3422,3805
3890,3257,3659
3902,3115,3526
3914,3020,3423
3925,2939,3324
3937,2875,3250
3949,2855,3195
3961,2854,3145
3973,2873,3112
3985,2905,3071
3996,2951,3060
4008,2976,3056
4020,3011,3061
4032,3050,3080
4044,3086,3098
4056,3118,3126
4067,3125,3165
4079,3141,3187
4091,3129,3211
4103,3103,3221
4115,3090,3209
4127,3075,3207
4138,3057,3166
4150,3051,3144
4162,3067,3095
4174,3064,3087
4186,3062,3056
4197,3071,3031
4209,3087,3016
4221,3097,3011
4233,3102,3003
4245,3099,2997
4257,3100,2987
4268,3104,2991
4280,3119,2989
4292,3132,2996
4304,3130,2994
4316,3140,3010
4328,3152,3003
4339,3157,3000
4351,3172,2999
4363,3188,3001
4375,3215,3004
4387,3233,3006
4399,3284,3047
4410,3370,3118
4422,3465,3250
4434,3587,3435
4446,3769,3644
4458,4014,3837
4470,4095,4013
4481,4095,4095
4493,4095,4095
4505,4095,4095
4517,4095,4095
4529,3868,4013
4541,3646,3895
4552,3407,3752
4564,3205,3635
4576,3028,3515
4588,2917,3443
4600,2824,3378
4611,2776,3309
4623,2763,3261
4635,2753,3219
4647,2776,3186
4659,2805,3161
4671,2842,3140
4682,2904,3114
4694,2952,3119
4706,3007,3131
4718,3060,3147
4730,3107,3171
4742,3139,3197
4753,3160,3202
4765,3157,3221
4777,3165,3219
4789,3167,3204
4801,3150,3203
4813,3150,3178
4824,3148,3154
4836,3131,3117
4848,3114,3095
4860,3080,3070
4872,3068,3056
4884,3046,3031
4895,3031,3004
4907,3023,2973
4919,3022,2963
4931,3023,2948
4943,3016,2941
4955,3032,2947
4966,3050,2957
4978,3083,2962
4990,3115,2984
5002,3147,2985
5014,3154,2988
5025,3179,2996
5037,3175,2991
5049,3168,2996
5061,3179,3013
5073,3185,3038
5085,3222,3097
5096,3297,3203
5108,3403,3350
5120,3571,3520
5132,3836,3699
5144,4095,3876
5156,4095,4008
5167,4095,4073
5179,4095,4069
5191,4095,4042
5203,4013,3964
5215,3756,3849
5227,3509,3735
5238,3283,3621
5250,3081,3490
5262,2943,3389
5274,2837,3294
5286,2769,3225
5298,2734,3170
5309,2729,3127
5321,2740,3085
5333,2774,3076
5345,2818,3058
5357,2862,3047
5368,2897,3045
5380,2931,3056
5392,2956,3079
5404,2995,3100
5416,3026,3115
5428,3047,3147
5439,3059,3155
5451,3073,3168
5463,3077,3161
5475,3077,3148
5487,3062,3135
5499,3053,3118
5510,3055,3097
5522,3052,3085
5534,3054,3062
5546,3053,3041
5558,3063,3043
5570,3087,3018
5581,3097,3004
5593,3116,3003
5605,3127,2990
5617,3140,3002
5629,3135,3001
5641,3129,2990
5652,3133,3003
5664,3135,3014
5676,3114,3009
5688,3107,3015
5700,3102,2991
5711,3114,3001
5723,3124,2997
5735,3126,2989
5747,3149,3000
5759,3159,3003
5771,3176,3000
5782,3213,3039
5794,3277,3081
5806,3356,3162
5818,3455,3310
5830,3601,3473
5842,3850,3649
5853,4095,3824
5865,4095,3953
5877,4095,4049
5889,4095,4082
5901,4095,4050
5913,4064,3988
5924,3804,3869
5936,3542,3744
5948,3292,3607
5960,3098,3481
5972,2958,3348
5984,2865,3264
5995,2809,3197
6007,2788,3129
6019,2791,3080
6031,2797,3046
6043,2800,3013
6055,2829,3007
6066,2862,3000
6078,2898,3000
6090,2942,3014
6102,2972,3037
6114,3004,3071
6125,3044,3096
6137,3090,3127
6149,3121,3135
6161,3161,3146
6173,3174,3135
6185,3160,3118
6196,3137,3103
6208,3111,3083
6220,3077,3050
6232,3060,3035
6244,3056,3001
6256,3061,2980
6267,3071,2969
6279,3083,2951
6291,3103,2937
6303,3103,2933
6315,3099,2905
6327,3113,2902
6338,3106,2892
6350,3112,2893
6362,3105,2892
6374,3109,2920
6386,3103,2932
6398,3094,2946
6409,3080,2958
6421,3058,2968
6433,3043,2981
6445,3024,2981
6457,3001,2985
6468,2998,2992
6480,2983,3005
6492,2999,3030
6504,3065,3076
6516,3157,3161
6528,3272,3269
6539,3408,3408
6551,3588,3568
6563,3844,3726
6575,4095,3873
6587,4095,3981
6599,4095,4020
6610,4095,4001
6622,4095,3935
6634,4022,3832
6646,3782,3697
6658,3536,3564
6670,3317,3435
6681,3118,3312
6693,2978,3206
6705,2875,3115
6717,2793,3063
6729,2738,3017
6740,2703,2997
6752,2676,2983
6764,2666,2965
6776,2682,2983
6788,2728,3015
6800,2789,3050
6811,2871,3092
6823,2954,3130
6835,3022,3158
6847,3065,3188
6859,3112,3210
6871,3139,3205
6882,3155,3177
6894,3161,3169
6906,3158,3140
6918,3134,3107
6930,3118,3079
6942,3092,3052
6953,3058,3009
6965,3028,2967
6977,3016,2932
6989,3002,2912
7001,3004,2890
7013,3019,2892
7024,3047,2912
7036,3077,2927
7048,3106,2973
7060,3132,3002
7072,3147,3040
7084,3152,3061
7095,3146,3073
7107,3135,3096
7119,3118,3089
7131,3118,3092
7143,3113,3096
7154,3090,3095
7166,3099,3067
7178,3111,3062
7190,3134,3070
7202,3174,3099
7214,3240,3162
7225,3325,3273
7237,3440,3419
7249,3617,3546
7261,3854,3682
7273,4051,3787
7285,4095,3839
7296,4095,3839
7308,4095,3812
7320,3975,3736
7332,3788,3616
7344,3603,3497
7356,3426,3384
7367,3254,3262
7379,3113,3177
7391,3005,3079
7403,2916,3011
7415,2851,2952
7427,2815,2908
7438,2791,2891
7450,2784,2878
7462,2805,2885
7474,2832,2921
7486,2863,2951
7498,2908,3016
7509,2949,3064
7521,2958,3093
7533,2971,3117
7545,2996,3130
7557,3032,3135
7568,3075,3136
7580,3088,3116
7592,3102,3086
7604,3084,3074
7616,3086,3045
7628,3076,3024
7639,3077,3002
7651,3078,2993
7663,3071,2966
7675,3059,2955
7687,3051,2952
7699,3050,2941
7710,3068,2942
7722,3075,2936
7734,3104,2940
7746,3117,2930
7758,3130,2945
7770,3132,2962
7781,3127,2969
7793,3123,2970
7805,3115,2970
7817,3100,2961
7829,3111,2955
7841,3118,2950
7852,3134,2960
7864,3169,2997
7876,3232,3051
7888,3301,3165
7900,3373,3310
7911,3495,3500
7923,3713,3678
7935,3991,3829
7947,4095,3947
7959,4095,4008
7971,4095,4011
7982,4095,3947
7994,4095,3856
8006,4080,3744
8018,3846,3605
8030,3621,3471
8042,3387,3344
8053,3182,3232
8065,3010,3128
8077,2891,3058
8089,2807,3016
8101,2756,2963
8113,2734,2939
8124,2737,2927
8136,2771,2936
8148,2813,2941
8160,2860,2966
8172,2903,2984
8184,2960,3023
8195,3007,3053
8207,3060,3085
8219,3100,3105
8231,3102,3118
8243,3113,3121
8254,3110,3120
8266,3092,3102
8278,3064,3072
8290,3040,3043
8302,3020,3019
8314,3015,2991
8325,2996,2956
8337,2978,2931
8349,2988,2900
8361,3011,2879
8373,3052,2883
8385,3071,2895
8396,3098,2903
8408,3111,2932
8420,3116,2943
8432,3126,2961
8444,3117,2979
8456,3107,2980
8467,3112,3001
8479,3113,3002
8491,3121,3021
8503,3122,3020
8515,3125,3027
8527,3125,3024
8538,3132,3018
8550,3124,2984
8562,3117,2979
8574,3132,2996
8586,3183,3025
8597,3250,3116
8609,3321,3261
8621,3439,3457
8633,3652,3657
8645,3960,3846
8657,4095,3990
8668,4095,4072
8680,4095,4084
8692,4095,4050
8704,4095,3954
8716,4095,3828
8728,3859,3702
8739,3613,3561
8751,3376,3422
8763,3169,3308
8775,3005,3220
8787,2895,3151
8799,2817,3097
8810,2780,3044
8822,2772,3030
8834,2792,3000
8846,2809,2979
8858,2857,2975
8869,2892,2980
8881,2913,2995
8893,2928,3021
8905,2973,3039
8917,3014,3060
8929,3039,3098
8940,3060,3110
8952,3071,3123
8964,3063,3120
8976,3050,3108
8988,3046,3099
9000,3043,3076
9011,3049,3053
9023,3050,3049
9035,3044,3024
9047,3044,3001
9059,3045,2993
9071,3044,2979
9082,3039,2968
9094,3045,2968
9106,3053,2960
9118,3056,2953
9130,3067,2951
9142,3089,2936
9153,3116,2934
9165,3136,2944
9177,3146,2950
9189,3160,2966
9201,3162,2967
9213,3144,2974
9224,3131,2962
9236,3117,2970
9248,3108,2955
9260,3098,2959
9272,3098,2955
9283,3106,2962
9295,3119,2956
9307,3133,2959
9319,3175,2999
9331,3234,3077
9343,3317,3191
9354,3388,3376
9366,3475,3558
9378,3590,3753
9390,3766,3895
9402,3913,4008
9414,4010,4052
9425,4031,4026
9437,3987,3968
9449,3894,3846
9461,3762,3729
9473,3607,3589
9485,3449,3444
9496,3317,3313
9508,3204,3209
9520,3129,3128
9532,3070,3061
9544,3023,3022
9556,3000,2990
9567,2992,2967
9579,2998,2955
9591,3018,2964
9603,3038,2975
9615,3072,3005
9626,3103,3052
9638,3121,3082
9650,3125,3113
9662,3136,3135
9674,3153,3164
9686,3157,3161
9697,3152,3164
9709,3157,3159
9721,3142,3128
9733,3153,3111
9745,3164,3086
9757,3179,3058
9768,3173,3026
9780,3172,3025
9792,3158,2991
9804,3168,2979
9816,3168,2969
9828,3170,2980
9839,3164,3000
9851,3142,3008
9863,3125,3028
9875,3103,3031
9887,3083,3036
9899,3069,3037
9910,3060,3041
9922,3052,3041
9934,3049,3043
9946,3038,3023
9958,3032,3034
9970,3047,3029
9981,3068,3018
9993,3093,2996
10005,3105,2995
10017,3111,2989
10029,3147,2969
10040,3172,2978
10052,3191,2975
10064,3243,2993
10076,3309,3061
10088,3412,3176
10100,3526,3340
10111,3634,3533
10123,3750,3735
10135,3863,3908
10147,3949,4040
10159,3981,4095
10171,3936,4093
10182,3828,4041
10194,3666,3946
10206,3503,3800
10218,3359,3658
10230,3243,3507
10242,3157,3377
10253,3093,3256
10265,3039,3154
10277,2992,3074
10289,2970,3038
10301,2963,3011
10313,2966,2982
10324,2988,2976
10336,3011,2990
10348,3052,3002
10360,3083,3039
10372,3115,3051
10384,3128,3083
10395,3159,3121
10407,3170,3148
10419,3191,3181
10431,3199,3196
10443,3193,3188
10455,3180,3186
10466,3173,3172
10478,3154,3149
10490,3143,3111
10502,3116,3075
10514,3104,3035
10526,3083,3002
10537,3071,2959
10549,3076,2938
10561,3094,2914
10573,3110,2890
10585,3113,2894
10597,3128,2866
10608,3110,2867
10620,3100,2863
10632,3083,2848
10644,3071,2859
10656,3068,2863
10668,3075,2883
10679,3101,2903
10691,3131,2921
10703,3156,2934
10715,3166,2945
10727,3162,2962
10739,3146,2962
10750,3146,2962
10762,3146,2974
10774,3154,2979
10786,3168,2972
10798,3192,2993
10810,3235,3041
10821,3320,3139
10833,3406,3300
10845,3459,3497
10857,3506,3706
10869,3545,3878
10881,3587,4018
10892,3586,4095
10904,3560,4095
10916,3487,4044
10928,3410,3954
10940,3306,3809
10952,3212,3666
10963,3133,3506
10975,3065,3362
10987,3030,3234
10999,2997,3137
11011,2976,3048
11023,2992,2990
11034,3017,2934
11046,3027,2894
11058,3057,2885
11070,3085,2894
11082,3115,2932
11094,3156,2970
11105,3191,3028
11117,3219,3070
11129,3221,3122
11141,3223,3163
11153,3199,3193
11165,3185,3208
11176,3178,3220
11188,3159,3214
11200,3145,3185
11212,3136,3177
11224,3132,3151
11236,3114,3124
11247,3117,3084
11259,3117,3056
11271,3125,3035
11283,3138,3012
11295,3147,2995
11307,3142,2978
11318,3145,2947
11330,3149,2935
11342,3167,2940
11354,3185,2939
11366,3204,2949
11378,3204,2957
11389,3182,2960
11401,3163,2969
11413,3153,2970
11425,3153,2965
11437,3149,2977
11449,3152,2981
11460,3149,2975
11472,3166,2995
11484,3218,3060
11496,3267,3142
11508,3348,3293
11520,3429,3483
11531,3489,3676
11543,3541,3853
11555,3548,3996
11567,3534,4068
11579,3509,4091
11591,3466,4048
11602,3415,3978
11614,3352,3854
11626,3281,3716
11638,3215,3564
11650,3169,3410
11662,3130,3259
11673,3103,3163
11685,3076,3064
11697,3051,2991
11709,3037,2941
11721,3048,2903
11733,3065,2895
11744,3089,2909
11756,3120,2935
11768,3153,2971
11780,3187,3029
11792,3229,3084
11804,3251,3144
11815,3250,3172
11827,3234,3207
11839,3202,3216
11851,3152,3221
11863,3127,3220
11875,3104,3206
11886,3094,3164
11898,3099,3118
11910,3112,3083
11922,3112,3050
11934,3119,3005
11946,3121,2982
11957,3124,2955
11969,3137,2936
11981,3152,2908
11993,3161,2916
12005,3158,2915
12017,3157,2932
12028,3158,2939
12040,3163,2954
12052,3158,2965
12064,3162,2968
12076,3155,2978
12088,3149,2982
12099,3137,2986
12111,3150,2990
12123,3165,3003
12135,3216,3034
12147,3284,3095
12159,3380,3199
12170,3466,3353
12182,3544,3553
12194,3612,3764
12206,3684,3919
12218,3729,4042
12230,3737,4080
12241,3706,4086
12253,3606,4014
12265,3485,3903
12277,3369,3756
12289,3253,3591
12301,3170,3437
12312,3102,3285
12324,3073,3159
12336,3055,3052
12348,3051,2980
12360,3045,2920
12372,3034,2894
12383,3048,2881
12395,3077,2886
12407,3107,2904
12419,3147,2951
12431,3169,2997
12443,3200,3055
12454,3211,3108
12466,3213,3160
12478,3188,3186
12490,3167,3209
12502,3157,3229
12514,3132,3232
12525,3101,3220
12537,3090,3207
12549,3089,3187
12561,3066,3153
12573,3057,3125
12585,3059,3096
12596,3076,3063
12608,3080,3039
12620,3080,3021
12632,3080,2999
12644,3074,2998
12655,3095,2988
12667,3113,2986
12679,3108,2976
12691,3110,2978
12703,3119,2983
12715,3116,2983
12727,3117,2985
12738,3111,2983
12750,3105,2976
12762,3111,2970
12774,3153,2982
12786,3206,3011
12798,3280,3070
12809,3375,3206
12821,3476,3376
12833,3588,3599
12845,3761,3796
12857,3961,3988
12869,4095,4095
12880,4095,4095
12892,4095,4095
12904,4071,4081
12916,3894,3987
12928,3669,3868
12940,3462,3725
12951,3255,3573
12963,3102,3443
12975,2975,3321
12987,2897,3245
12999,2857,3175
13011,2838,3119
13022,2828,3081
13034,2843,3062
13046,2875,3045
13058,2923,3034
13070,2980,3034
13081,3028,3060
13093,3070,3076
13105,3097,3111
13117,3110,3132
13129,3126,3173
13141,3136,3170
13152,3148,3191
13164,3135,3189
13176,3122,3173
13188,3102,3164
13200,3067,3132
13212,3059,3110
13223,3044,3088
13235,3064,3050
13247,3072,3009
13259,3075,2983
13271,3076,2967
13283,3067,2942
13295,3067,2921
13306,3051,2918
13318,3043,2911
13330,3059,2920
13342,3074,2914
13354,3080,2938
13365,3082,2961
13377,3073,2962
13389,3077,2986
13401,3078,2981
13413,3071,2981
13425,3052,2985
13436,3049,2983
13448,3046,2980
13460,3075,2992
13472,3117,3023
13484,3181,3076
13496,3279,3187
13507,3392,3357
13519,3544,3552
13531,3832,3780
13543,4095,3964
13555,4095,4095
13567,4095,4095
13578,4095,4095
13590,4095,4095
13602,4095,4095
13614,4095,4014
13626,3843,3872
13638,3503,3726
13649,3226,3570
13661,3001,3456
13673,2838,3347
13685,2745,3264
13697,2696,3213
13709,2681,3149
13720,2703,3115
13732,2721,3075
13744,2762,3038
13756,2802,3035
13768,2867,3045
13780,2928,3055
13791,2980,3080
13803,3029,3091
13815,3062,3110
13827,3079,3130
13839,3106,3151
13851,3106,3154
13862,3103,3156
13874,3084,3146
13886,3076,3142
13898,3067,3105
13910,3067,3077
13922,3068,3040
13933,3063,3017
13945,3053,2984
13957,3045,2967
13969,3032,2945
13981,3026,2951
13993,3019,2964
14004,3030,2970
14016,3052,2967
14028,3060,2964
14040,3074,2974
14052,3066,2981
14064,3074,2977
14075,3077,2995
14087,3072,2986
14099,3059,2991
14111,3050,2985
14123,3042,2989
14135,3035,2973
14146,3036,2971
14158,3029,2958
14170,3010,2936
14182,3000,2931
14194,3017,2956
14206,3079,3024
14217,3165,3151
14229,3291,3358
14241,3572,3575
14253,3928,3798
14265,4095,3983
14277,4095,4095
14288,4095,4095
14300,4095,4095
14312,4095,4095
14324,4095,4012
14336,3945,3884
14348,3671,3743
14359,3423,3604
14371,3222,3463
14383,3050,3354
14395,2926,3264
14407,2854,3196
14419,2791,3148
14430,2749,3103
14442,2742,3067
14454,2756,3051
14466,2788,3047
14478,2808,3049
14490,2854,3057
14501,2889,3084
14513,2938,3112
14525,2945,3136
14537,2962,3172
14549,2973,3188
14561,3001,3219
14572,3030,3228
14584,3062,3222
14596,3074,3202
14608,3068,3194
14620,3042,3169
14632,3034,3140
14643,3007,3120
14655,2999,3097
14667,2999,3076
14679,2996,3060
14691,2988,3052
14703,2997,3065
14714,3012,3046
14726,3035,3045
14738,3053,3045
14750,3064,3029
14762,3075,2999
14774,3087,2990
14785,3102,2987
14797,3115,2992
14809,3119,2993
14821,3112,3002
14833,3106,3004
14845,3116,3003
14856,3124,3009
14868,3112,2995
14880,3108,2993
14892,3114,3008
14904,3153,3052
14916,3217,3132
14927,3305,3273
14939,3451,3460
14951,3725,3649
14963,4070,3847
14975,4095,4003
14987,4095,4095
14998,4095,4095
15010,4095,4095
15022,4095,4067
15034,4078,3963
15046,3781,3832
15058,3491,3694
15069,3227,3560
15081,3033,3436
15093,2877,3344
15105,2773,3253
15117,2705,3193
15129,2672,3135
15140,2676,3091
15152,2702,3062
15164,2749,3051
15176,2790,3060
15188,2848,3059
15200,2895,3082
15211,2954,3116
15223,2986,3153
15235,3019,3166
15247,3037,3197
15259,3054,3211
15271,3048,3216
15282,3068,3229
15294,3068,3215
15306,3072,3191
15318,3072,3179
15330,3065,3150
15342,3051,3118
15353,3047,3097
15365,3059,3073
15377,3050,3054
15389,3058,3046
15401,3051,3040
15413,3053,3033
15424,3048,3032
15436,3046,3024
15448,3054,3008
15460,3051,3021
15472,3039,3008
15484,3046,3025
15495,3041,3028
15507,3035,3042
15519,3038,3023
15531,3038,3029
15543,3044,3027
15555,3056,3022
15566,3070,3013
15578,3079,3022
15590,3113,3032
15602,3146,3066
15614,3204,3146
15626,3283,3281
15637,3431,3462
15649,3711,3646
15661,4055,3827
15673,4095,3989
15685,4095,4080
15697,4095,4095
15708,4095,4095
15720,4095,4027
15732,4002,3927
15744,3725,3778
15756,3457,3645
15768,3220,3518
15779,3030,3404
15791,2869,3296
15803,2773,3210
15815,2703,3143
15827,2680,3088
15839,2692,3052
15850,2719,3024
15862,2751,3007
15874,2812,3008
15886,2860,3000
15898,2909,3031
15909,2947,3060
15921,2982,3092
15933,3020,3147
15945,3037,3167
15957,3075,3204
15969,3107,3227
15980,3106,3226
15992,3107,3207
16004,3116,3192
16016,3119,3171
16028,3112,3152
16040,3087,3132
16051,3069,3094
16063,3056,3081
16075,3049,3066
16087,3051,3053
16099,3056,3046
16111,3060,3031
16122,3065,3018
16134,3064,3028
16146,3051,3013
16158,3038,3020
16170,3046,3023
16182,3044,3026
16193,3052,3009
16205,3069,3026
16217,3071,3020
16229,3071,3013
16241,3069,3013
16253,3076,3013
16264,3105,3036
16276,3160,3097
16288,3232,3220
16300,3327,3392
16312,3508,3588
16324,3783,3778
16335,4063,3930
16347,4095,4039
16359,4095,4084
16371,4095,4077
16383,4095,4022
16395,4014,3938
16406,3783,3813
16418,3561,3679
16430,3347,3530
16442,3143,3406
16454,2988,3293
16466,2875,3182
16477,2817,3101
16489,2766,3042
16501,2746,2997
16513,2758,2984
16525,2805,2982
16537,2871,2991
16548,2941,3003
16560,2984,3047
16572,3032,3083
16584,3081,3107
16596,3107,3153
16608,3125,3193
16619,3131,3219
16631,3130,3236
16643,3125,3235
16655,3107,3223
16667,3092,3220
16679,3082,3183
16690,3075,3152
16702,3082,3150
16714,3074,3128
16726,3059,3116
16738,3033,3079
16750,3011,3063
16761,3004,3045
16773,3004,3020
16785,2997,3002
16797,3001,2995
16809,2990,2991
16821,2993,3004
16832,3005,2997
16844,3033,3007
16856,3051,3015
16868,3068,3023
16880,3101,3019
16892,3120,3037
16903,3163,3089
16915,3219,3191
16927,3276,3332
16939,3393,3504
16951,3630,3693
16963,3945,3863
16974,4095,3999
16986,4095,4073
16998,4095,4095
17010,4095,4092
17022,4095,4033
17034,4054,3918
17045,3801,3794
17057,3535,3662
17069,3304,3533
17081,3084,3399
17093,2937,3304
17105,2828,3205
17116,2751,3124
17128,2729,3079
17140,2733,3047
17152,2747,3015
17164,2797,3022
17176,2857,3052
17187,2916,3073
17199,2986,3122
17211,3017,3153
17223,3050,3192
17235,3071,3220
17247,3095,3250
17258,3090,3248
17270,3084,3258
17282,3076,3242
17294,3072,3231
17306,3054,3194
17318,3034,3167
17329,3032,3143
17341,3039,3114
17353,3028,3091
17365,3033,3073
17377,3033,3047
17389,3050,3031
17400,3054,3021
17412,3067,3012
17424,3068,3026
17436,3070,3021
17448,3076,3008
17460,3086,3016
17471,3101,3012
17483,3133,3025
17495,3152,3031
17507,3179,3061
17519,3225,3100
17531,3269,3169
17542,3337,3290
17554,3483,3450
17566,3761,3641
17578,4095,3834
17590,4095,3999
17602,4095,4095
17613,4095,4095
17625,4095,4095
17637,4095,4095
17649,4095,4033
17661,3914,3901
17673,3550,3759
17684,3227,3630
17696,2978,3509
17708,2769,3397
17720,2636,3321
17732,2555,3249
17744,2523,3200
17755,2530,3147
17767,2568,3125
17779,2629,3109
17791,2703,3095
17803,2792,3105
17815,2872,3107
17826,2951,3140
17838,3012,3169
17850,3052,3215
17862,3079,3244
17874,3073,3261
17886,3079,3266
17897,3042,3269
17909,3021,3260
17921,2999,3227
17933,2991,3197
17945,2983,3175
17957,2967,3152
17968,2959,3123
17980,2969,3105
17992,2967,3087
18004,2958,3059
18016,2977,3039
18028,3002,3027
18039,3031,3014
18051,3055,3011
18063,3068,3002
18075,3090,3010
18087,3088,3007
18099,3098,3004
18110,3107,3025
18122,3115,3045
18134,3126,3064
18146,3164,3133
18158,3221,3256
18170,3397,3412
18181,3742,3594
18193,4095,3802
18205,4095,3991
18217,4095,4095
18229,4095,4095
18241,4095,4095
18252,4095,4095
18264,4095,4068
18276,4095,3989
18288,3890,3896
18300,3448,3765
18312,3084,3642
18323,2824,3512
18335,2658,3439
18347,2546,3362
18359,2496,3284
18371,2490,3226
18383,2518,3182
18394,2559,3145
18406,2623,3127
18418,2670,3123
18430,2722,3127
18442,2782,3140
18454,2840,3156
18465,2888,3200
18477,2925,3224
18489,2953,3243
18501,2982,3261
18513,3000,3267
18525,3018,3267
18536,3010,3252
18548,3014,3235
18560,3015,3196
18572,3009,3156
18584,2993,3125
18596,2979,3078
18607,2957,3045
18619,2973,3033
18631,2982,3014
18643,3010,3021
18655,3048,3016
18667,3074,3030
18678,3101,3037
18690,3121,3038
18702,3131,3052
18714,3126,3064
18726,3119,3074
18738,3101,3056
18749,3101,3074
18761,3091,3067
18773,3097,3085
18785,3110,3097
18797,3131,3154
18809,3193,3233
18820,3410,3374
18832,3804,3545
18844,4095,3747
18856,4095,3945
18868,4095,4083
18880,4095,4095
18891,4095,4095
18903,4095,4095
18915,4095,4095
18927,4095,4084
18939,4006,4014
18951,3564,3911
18962,3196,3788
18974,2908,3679
18986,2711,3568
18998,2616,3495
19010,2554,3408
19022,2529,3351
19033,2529,3270
19045,2549,3220
19057,2582,3183
19069,2616,3154
19081,2655,3132
19093,2704,3127
19104,2786,3148
19116,2886,3167
19128,2972,3194
19140,3052,3221
19152,3108,3236
19164,3142,3249
19175,3142,3260
19187,3129,3247
19199,3086,3241
19211,3035,3219
19223,2998,3198
19235,2958,3192
19246,2935,3157
19258,2911,3142
19270,2902,3119
19282,2896,3093
19294,2903,3088
19306,2909,3069
19317,2906,3064
19329,2911,3044
19341,2931,3044
19353,2941,3034
19365,2953,3041
19377,2973,3040
19388,3004,3044
19400,3039,3054
19412,3067,3051
19424,3085,3049
19436,3089,3062
19448,3113,3056
19459,3111,3071
19471,3104,3063
19483,3082,3060
19495,3072,3060
19507,3066,3051
19519,3066,3043
19530,3071,3030
19542,3076,3042
19554,3102,3070
19566,3145,3132
19578,3286,3256
19590,3615,3429
19601,4062,3618
19613,4095,3835
19625,4095,4019
19637,4095,4095
19649,4095,4095
19661,4095,4095
19672,4095,4095
19684,4095,4095
19696,4095,4036
19708,3810,3954
19720,3402,3835
19732,3076,3712
19743,2835,3616
19755,2677,3520
19767,2586,3447
19779,2537,3367
19791,2528,3301
19803,2524,3236
19814,2534,3186
19826,2564,3145
19838,2617,3123
19850,2688,3120
19862,2774,3129
19874,2853,3141
19885,2933,3160
19897,3003,3182
19909,3063,3201
19921,3091,3214
19933,3108,3223
19945,3114,3226
19956,3112,3202
19968,3114,3192
19980,3107,3175
19992,3097,3136
20004,3089,3111
20016,3080,3086
20027,3072,3062
20039,3069,3046
20051,3056,3025
20063,3072,3020
20075,3070,3011
20087,3078,3025
20098,3087,3023
20110,3092,3035
20122,3087,3050
20134,3097,3057
20146,3106,3076
20158,3107,3089
20169,3073,3093
20181,3041,3105
20193,3035,3121
20205,3031,3118
20217,3034,3120
20229,3040,3123
20240,3051,3128
20252,3050,3130
20264,3067,3115
20276,3050,3104
20288,3024,3085
20300,3001,3061
20311,3003,3043
20323,3001,3039
20335,3010,3035
20347,3032,3023
20359,3043,3029
20371,3053,3007
20382,3073,3001
20394,3091,3011
20406,3164,3062
20418,3258,3150
20430,3420,3305
20442,3751,3504
20453,4095,3711
20465,4095,3900
20477,4095,4050
20489,4095,4070
20501,4095,4072
20513,4095,4050
20524,4095,4042
20536,4095,3993
20548,3853,3889
20560,3354,3767
20572,2936,3621
20584,2618,3497
20595,2406,3376
20607,2283,3270
20619,2236,3197
20631,2269,3116
20643,2338,3072
20655,2446,3035
20666,2567,3020
20678,2694,3010
20690,2799,3025
20702,2875,3047
20714,2945,3073
20726,2982,3097
20737,3002,3131
20749,3004,3146
20761,2994,3162
20773,2985,3170
20785,2968,3163
20797,2968,3161
20808,2957,3128
20820,2961,3117
20832,2961,3079
20844,2976,3047
20856,2982,3012
20868,2995,2987
20879,3013,2953
20891,3047,2929
20903,3078,2917
20915,3125,2918
20927,3152,2924
20939,3172,2942
20950,3183,2966
20962,3190,3016
20974,3160,3038
20986,3114,3073
20998,3057,3100
21010,2992,3105
21021,2938,3097
21033,2936,3091
21045,2984,3076
21057,3041,3058
21069,3090,3038
21081,3133,3010
21092,3150,3006
21104,3145,3007
21116,3105,2996
21128,3045,2992
21140,2994,2967
21152,2967,2970
21163,2976,2961
21175,3014,2975
21187,3054,2994
21199,3123,3012
21211,3183,3008
21223,3236,3014
21234,3297,3031
21246,3379,3061
21258,3444,3138
21270,3556,3257
21282,3819,3439
21294,4095,3647
21305,4095,3846
21317,4095,3986
21329,4095,4041
21341,4095,4052
21353,4095,4038
21365,4095,3977
21377,4065,3854
21388,3613,3721
21400,3222,3573
21412,2898,3431
21424,2668,3321
21436,2532,3227
21448,2451,3160
21459,2439,3102
21471,2431,3050
21483,2441,3018
21495,2468,2996
21507,2521,2988
21519,2584,2987
21530,2670,3000
21542,2779,3025
21554,2882,3058
21566,2984,3082
21578,3074,3093
21590,3132,3107
21601,3196,3119
21613,3237,3102
21625,3259,3084
21637,3274,3067
21649,3276,3060
21661,3241,3054
21672,3202,3025
21684,3133,3024
21696,3069,3017
21708,3005,3015
21720,2943,3015
21732,2919,3019
21743,2903,3013
21755,2896,3006
21767,2915,2993
21779,2952,2992
21791,2995,2972
21803,3042,2943
21814,3081,2919
21826,3104,2897
21838,3121,2883
21850,3148,2879
21862,3144,2878
21874,3140,2890
21885,3140,2910
21897,3165,2945
21909,3176,2987
21921,3177,3004
21933,3177,3036
21944,3157,3051
21956,3150,3053
21968,3106,3055
21980,3076,3038
21992,3050,3011
22004,3041,2994
22016,3038,2965
22027,3043,2948
22039,3056,2956
22051,3087,2970
22063,3163,3031
22075,3255,3144
22086,3443,3327
22098,3780,3522
22110,4095,3721
22122,4095,3912
22134,4095,4054
22146,4095,4095
22157,4095,4095
22169,4095,4065
22181,4095,3982
22193,3899,3867
22205,3486,3718
22217,3117,3568
22228,2833,3433
22240,2634,3313
22252,2525,3203
22264,2490,3137
22276,2505,3077
22288,2548,3038
22299,2611,3024
22311,2678,2993
22323,2759,3008
22335,2834,3013
22347,2909,3049
22359,2964,3066
22370,3009,3107
22382,3032,3136
22394,3062,3166
22406,3071,3186
22418,3046,3200
22430,3035,3188
22441,3026,3165
22453,3015,3151
22465,3011,3118
22477,3028,3085
22489,3043,3062
22501,3054,3035
22512,3067,3017
22524,3062,2987
22536,3061,2984
22548,3062,2969
22560,3059,2965
22572,3060,2965
22583,3082,2966
22595,3090,2987
22607,3095,3001
22619,3090,3009
22631,3070,3005
22643,3074,3004
22654,3072,3009
22666,3071,3006
22678,3051,2995
22690,3040,2988
22702,3016,2977
22714,3030,2964
22725,3039,2955
22737,3081,2947
22749,3102,2950
22761,3128,2940
22773,3142,2955
22785,3164,2949
22796,3188,2965
22808,3193,2980
22820,3232,3008
22832,3292,3083
22844,3370,3174
22856,3478,3334
22867,3675,3512
22879,3998,3723
22891,4095,3911
22903,4095,4043
22915,4095,4095
22927,4095,4095
22938,4095,4082
22950,4095,3989
22962,3841,3847
22974,3463,3689
22986,3116,3539
22998,2836,3400
23009,2639,3279
23021,2526,3183
23033,2447,3128
23045,2420,3081
23057,2441,3072
23069,2471,3050
23080,2529,3054
23092,2604,3052
23104,2670,3076
23116,2750,3088
23128,2831,3124
23140,2917,3158
23151,2989,3194
23163,3057,3228
23175,3104,3260
23187,3142,3270
23199,3151,3273
23211,3135,3256
23222,3111,3223
23234,3087,3202
23246,3087,3162
23258,3083,3128
23270,3098,3096
23282,3110,3072
23293,3122,3037
23305,3128,2994
23317,3146,2968
23329,3152,2950
23341,3141,2918
23353,3111,2883
23364,3102,2864
23376,3086,2820
23388,3060,2808
23400,3033,2788
23412,3038,2782
23424,3046,2804
23435,3081,2830
23447,3117,2844
23459,3161,2878
23471,3179,2902
23483,3184,2919
23495,3184,2936
23506,3174,2928
23518,3162,2927
23530,3150,2928
23542,3147,2939
23554,3167,2951
23566,3221,3021
23577,3299,3134
23589,3426,3299
23601,3618,3506
23613,3893,3720
23625,4095,3904
23637,4095,4035
23648,4095,4091
23660,4095,4077
23672,4095,4010
23684,3860,3892
23696,3596,3747
23708,3353,3581
23719,3151,3429
23731,2990,3286
23743,2875,3177
23755,2793,3075
23767,2747,3016
23779,2738,2947
23790,2757,2903
23802,2826,2876
23814,2878,2873
23826,2937,2863
23838,2997,2891
23850,3038,2926
23861,3082,2970
23873,3105,3027
23885,3118,3065
23897,3128,3108
23909,3136,3133
23921,3141,3136
23932,3134,3137
23944,3130,3127
23956,3116,3110
23968,3119,3078
23980,3097,3057
23992,3075,3021
24003,3044,2983
24015,3015,2948
24027,2991,2919
24039,2970,2900
24051,2963,2884
24063,2979,2888
24074,2981,2891
24086,3000,2908
24098,3029,2918
24110,3049,2942
24122,3071,2948
24134,3094,2965
24145,3122,2963
24157,3148,2972
24169,3152,2976
24181,3146,2991
24193,3137,2985
24205,3134,2986
24216,3130,2975
24228,3137,2985
24240,3143,2988
24252,3180,3040
24264,3242,3124
24276,3307,3275
24287,3383,3472
24299,3478,3662
24311,3578,3826
24323,3687,3960
24335,3733,4040
24347,3731,4044
24358,3670,3995
24370,3569,3901
24382,3449,3771
24394,3312,3622
24406,3184,3465
24418,3092,3331
24429,3011,3206
24441,2977,3126
24453,2949,3054
24465,2935,3021
24477,2929,2984
24489,2939,2980
24500,2961,2973
24512,2987,2975
24524,3025,2996
24536,3084,3022
24548,3136,3056
24560,3161,3085
24571,3190,3131
24583,3175,3138
24595,3174,3154
24607,3157,3170
24619,3134,3162
24631,3101,3147
24642,3080,3128
24654,3079,3091
24666,3082,3059
24678,3090,3017
24690,3090,2988
24702,3092,2956
24713,3076,2930
24725,3064,2918
24737,3063,2908
24749,3057,2910
24761,3083,2912
24773,3092,2915
24784,3118,2932
24796,3125,2935
24808,3118,2957
24820,3133,2961
24832,3129,2972
24844,3134,2969
24855,3114,2983
24867,3113,2993
24879,3141,3014
24891,3189,3076
24903,3254,3172
24915,3343,3327
24926,3438,3518
24938,3611,3705
24950,3837,3879
24962,4026,4017
24974,4095,4095
24986,4095,4095
24997,4095,4067
25009,3978,3981
25021,3807,3858
25033,3594,3706
25045,3397,3560
25057,3225,3414
25068,3069,3287
25080,2963,3167
25092,2893,3077
25104,2871,3012
25116,2856,2969
25128,2853,2942
25139,2870,2929
25151,2894,2925
25163,2930,2931
25175,2972,2980
25187,3014,3008
25199,3051,3053
25210,3080,3122
25222,3101,3171
25234,3115,3217
25246,3122,3227
25258,3135,3236
25270,3128,3238
25281,3123,3207
25293,3113,3178
25305,3108,3136
25317,3106,3106
25329,3091,3058
25341,3098,3031
25352,3093,2994
25364,3077,2957
25376,3082,2946
25388,3084,2925
25400,3079,2923
25412,3074,2908
25423,3079,2913
25435,3076,2905
25447,3069,2920
25459,3074,2936
25471,3092,2942
25483,3119,2963
25494,3168,3028
25506,3234,3125
25518,3308,3268
25530,3425,3456
25542,3647,3662
25554,3917,3848
25565,4095,4009
25577,4095,4095
25589,4095,4095
25601,4095,4095
25613,4095,4046
25625,4034,3917
25636,3799,3782
25648,3565,3633
25660,3357,3495
25672,3178,3363
25684,3047,3245
25696,2935,3154
25707,2872,3090
25719,2841,3051
25731,2841,3004
25743,2843,2997
25755,2873,2986
25767,2903,2999
25778,2945,3038
25790,2974,3064
25802,3023,3117
25814,3051,3158
25826,3082,3187
25838,3110,3210
25849,3116,3221
25861,3106,3220
25873,3102,3202
25885,3090,3176
25897,3087,3150
25909,3083,3116
25920,3082,3061
25932,3075,3041
25944,3075,2999
25956,3090,2979
25968,3073,2955
25980,3065,2934
25991,3056,2940
26003,3023,2926
26015,3018,2918
26027,3027,2917
26039,3039,2930
26051,3072,2930
26062,3095,2946
26074,3101,2957
26086,3116,2988
26098,3155,3009
26110,3211,3094
26122,3286,3235
26133,3421,3431
26145,3668,3651
26157,4022,3883
26169,4095,4068
26181,4095,4095
26193,4095,4095
26204,4095,4095
26216,4095,4095
26228,4095,4095
26240,3955,3982
26252,3647,3842
26264,3341,3691
26275,3092,3555
26287,2903,3444
26299,2781,3360
26311,2710,3279
26323,2681,3224
26335,2686,3168
26346,2715,3125
26358,2757,3081
26370,2811,3058
26382,2854,3061
26394,2909,3069
26406,2954,3074
26417,2999,3102
26429,3026,3125
26441,3047,3145
26453,3071,3177
26465,3075,3186
26477,3079,3207
26488,3081,3212
26500,3086,3189
26512,3067,3171
26524,3061,3156
26536,3034,3126
26548,3028,3093
26559,3029,3064
26571,3025,3036
26583,3028,3019
26595,3026,2995
26607,3014,2983
26619,3010,2978
26630,3004,2985
26642,3002,3004
26654,3008,3027
26666,3018,3027
26678,3027,3031
26690,3038,3046
26701,3049,3041
26713,3072,3065
26725,3113,3101
26737,3182,3205
26749,3288,3332
26761,3531,3503
26772,3893,3700
26784,4095,3889
26796,4095,4053
26808,4095,4095
26820,4095,4095
26832,4095,4095
26843,4095,4095
26855,4095,4060
26867,3924,3948
26879,3541,3811
26891,3221,3691
26903,2964,3562
26914,2779,3465
26926,2655,3380
26938,2606,3322
26950,2558,3257
26962,2555,3215
26974,2570,3164
26985,2612,3130
26997,2654,3106
27009,2731,3100
27021,2789,3092
27033,2847,3096
27045,2911,3119
27056,2969,3146
27068,3021,3162
27080,3040,3185
27092,3066,3190
27104,3069,3208
27116,3065,3187
27127,3059,3162
27139,3045,3145
27151,3030,3121
27163,3010,3098
27175,2982,3082
27187,2986,3060
27198,2988,3047
27210,2996,3026
27222,3011,3008
27234,3023,3009
27246,3047,3000
27258,3074,3001
27269,3101,3008
27281,3101,3006
27293,3109,3017
27305,3109,3024
27317,3095,3019
27329,3074,3031
27340,3052,3023
27352,3024,3012
27364,2998,3000
27376,2993,3018
27388,3041,3068
27400,3127,3173
27411,3305,3331
27423,3639,3546
27435,4062,3772
27447,4095,3969
27459,4095,4095
27471,4095,4095
27482,4095,4095
27494,4095,4095
27506,4095,4095
27518,4095,4095
27530,3841,4017
27542,3432,3869
27553,3085,3751
27565,2831,3628
27577,2677,3534
27589,2583,3431
27601,2528,3356
27613,2499,3275
27624,2493,3218
27636,2505,3153
27648,2536,3102
27660,2596,3098
27672,2664,3067
27684,2739,3088
27695,2798,3103
27707,2856,3106
27719,2905,3125
27731,2965,3154
27743,3001,3160
27755,3008,3178
27766,3009,3182
27778,3025,3182
27790,3025,3164
27802,3005,3153
27814,2994,3129
27826,2973,3102
27837,2951,3090
27849,2941,3071
27861,2951,3064
27873,2975,3055
27885,3004,3043
27897,3026,3039
27908,3051,3033
27920,3060,3023
27932,3078,3024
27944,3083,3034
27956,3095,3036
27968,3096,3031
27979,3086,3046
27991,3084,3052
28003,3073,3055
28015,3069,3057
28027,3076,3059
28039,3079,3063
28050,3070,3069
28062,3086,3074
28074,3109,3108
28086,3152,3168
28098,3274,3273
28110,3558,3447
28121,3981,3641
28133,4095,3835
28145,4095,4023
28157,4095,4095
28169,4095,4095
28181,4095,4095
28192,4095,4095
28204,4095,4048
28216,3925,3933
28228,3519,3810
28240,3162,3685
28252,2885,3559
28263,2703,3472
28275,2583,3381
28287,2509,3294
28299,2463,3227
28311,2457,3160
28323,2467,3097
28334,2507,3051
28346,2563,3042
28358,2634,3030
28370,2682,3039
28382,2755,3062
28394,2822,3094
28405,2891,3121
28417,2939,3153
28429,2974,3173
28441,3014,3177
28453,3064,3203
28465,3078,3183
28476,3068,3173
28488,3063,3150
28500,3042,3118
28512,3029,3095
28524,3018,3068
28536,3018,3048
28547,3026,3021
28559,3040,3008
28571,3064,3000
28583,3083,2988
28595,3106,2978
28607,3110,2983
28618,3116,3000
28630,3105,2988
28642,3094,3003
28654,3068,3004
28666,3044,3018
28678,3025,3011
28689,3004,3021
28701,3012,3028
28713,3011,3035
28725,3038,3043
28737,3042,3039
28749,3048,3033
28760,3051,3021
28772,3075,3035
28784,3133,3085
28796,3196,3158
28808,3325,3297
28820,3629,3443
28831,4003,3627
28843,4095,3801
28855,4095,3941
28867,4095,4025
28879,4095,4039
28891,4095,4039
28902,4095,3977
28914,3972,3872
28926,3623,3739
28938,3310,3613
28950,3075,3502
28962,2895,3409
28973,2755,3309
28985,2678,3234
28997,2639,3161
29009,2628,3111
29021,2650,3061
29033,2693,3030
29044,2742,2996
29056,2796,2998
29068,2856,3005
29080,2918,3021
29092,2972,3059
29104,3013,3081
29115,3040,3115
29127,3053,3120
29139,3071,3122
29151,3076,3121
29163,3054,3112
29175,3032,3093
29186,3015,3077
29198,2994,3054
29210,2990,3029
29222,2989,2999
29234,3007,2985
29246,3030,2958
29257,3059,2935
29269,3094,2932
29281,3111,2918
29293,3121,2916
29305,3122,2917
29317,3123,2911
29328,3115,2908
29340,3117,2935
29352,3100,2944
29364,3086,2951
29376,3080,2967
29388,3086,2956
29399,3090,2961
29411,3110,2967
29423,3112,2976
29435,3125,2983
29447,3137,2979
29459,3164,3027
29470,3206,3132
29482,3279,3262
29494,3451,3425
29506,3729,3579
29518,4058,3758
29530,4095,3883
29541,4095,3952
29553,4095,3959
29565,4095,3918
29577,4095,3838
29589,3932,3724
29601,3658,3588
29613,3396,3461
29624,3162,3341
29636,2996,3239
29648,2852,3152
29660,2769,3074
29672,2722,3024
29683,2716,2977
29695,2737,2958
29707,2773,2953
29719,2830,2947
29731,2890,2971
29743,2968,2997
29754,3019,3029
29766,3071,3073
29778,3091,3108
29790,3100,3155
29802,3099,3181
29814,3101,3200
29826,3095,3208
29837,3089,3196
29849,3084,3164
29861,3062,3146
29873,3052,3120
29885,3033,3089
29897,3017,3075
29908,3005,3051
29920,3009,3028
29932,3005,3006
29944,3003,2981
29956,3003,2982
29968,3015,2973
29979,3037,2977
29991,3039,2972
