timestamp_ms,ppg1,ppg2
0,3156,3171
12,3155,3153
24,3162,3150
35,3176,3140
47,3167,3143
59,3158,3143
71,3154,3148
83,3146,3145
95,3162,3147
106,3162,3153
118,3154,3167
130,3161,3173
142,3169,3191
154,3169,3202
165,3178,3202
177,3166,3207
189,3157,3194
201,3128,3181
213,3128,3169
224,3128,3166
236,3121,3161
248,3109,3141
260,3094,3133
272,3112,3134
284,3114,3130
295,3117,3126
307,3120,3130
319,3112,3127
331,3122,3143
343,3121,3141
355,3132,3143
366,3134,3144
378,3151,3159
390,3149,3159
402,3146,3154
414,3168,3144
425,3178,3143
437,3195,3143
449,3233,3134
461,3265,3133
473,3270,3142
485,3294,3159
496,3305,3164
508,3311,3171
520,3301,3186
532,3291,3212
544,3290,3233
555,3273,3264
567,3251,3294
579,3243,3317
591,3234,3343
603,3236,3355
615,3230,3360
626,3229,3372
638,3224,3375
650,3219,3367
662,3224,3376
674,3229,3366
685,3233,3357
697,3208,3334
709,3201,3319
721,3186,3289
733,3167,3254
745,3163,3240
756,3155,3233
768,3142,3218
780,3134,3226
792,3151,3226
804,3159,3224
815,3172,3212
827,3188,3216
839,3190,3210
851,3200,3199
863,3200,3217
875,3225,3225
886,3214,3231
898,3221,3232
910,3241,3233
922,3252,3239
934,3255,3249
945,3265,3245
957,3269,3255
969,3251,3252
981,3234,3248
993,3223,3250
1005,3220,3245
1016,3216,3236
1028,3208,3236
1040,3200,3229
1052,3187,3212
1064,3180,3195
1076,3186,3201
1087,3187,3192
1099,3177,3186
1111,3171,3178
1123,3171,3181
1135,3168,3176
1146,3176,3181
1158,3173,3188
1170,3169,3184
1182,3168,3192
1194,3163,3183
1206,3179,3176
1217,3183,3174
1229,3204,3183
1241,3216,3172
1253,3204,3167
1265,3192,3162
1277,3191,3178
1288,3191,3181
1300,3195,3188
1312,3193,3195
1324,3190,3188
1336,3191,3190
1347,3199,3192
1359,3205,3193
1371,3210,3185
1383,3228,3183
1395,3247,3197
1407,3251,3205
1418,3272,3237
1430,3280,3260
1442,3291,3293
1454,3293,3328
1466,3282,3368
1478,3275,3408
1489,3255,3429
1501,3240,3450
1513,3219,3453
1525,3218,3452
1537,3222,3437
1548,3231,3439
1560,3237,3424
1572,3226,3416
1584,3221,3396
1596,3235,3377
1608,3239,3363
1619,3232,3351
1631,3225,3339
1643,3221,3328
1655,3211,3320
1667,3210,3313
1678,3206,3310
1690,3221,3288
1702,3207,3280
1714,3219,3271
1726,3227,3268
1738,3237,3268
1749,3237,3271
1761,3227,3262
1773,3222,3265
1785,3228,3260
1797,3218,3278
1809,3193,3297
1820,3184,3315
1832,3169,3321
1844,3175,3317
1856,3183,3322
1868,3198,3310
1879,3215,3293
1891,3216,3284
1903,3206,3271
1915,3208,3259
1927,3222,3253
1939,3226,3236
1950,3229,3227
1962,3236,3230
1974,3228,3231
1986,3215,3237
1998,3207,3247
2010,3195,3240
2021,3196,3217
2033,3188,3208
2045,3187,3210
2057,3192,3204
2069,3198,3196
2081,3191,3185
2092,3190,3179
2104,3181,3182
2116,3197,3177
2128,3207,3182
2140,3201,3190
2152,3198,3198
2163,3199,3202
2175,3197,3190
2187,3201,3199
2199,3215,3186
2211,3217,3183
2222,3214,3166
2234,3210,3155
2246,3232,3157
2258,3236,3164
2270,3250,3190
2282,3261,3220
2293,3278,3269
2305,3274,3304
2317,3269,3346
2329,3269,3390
2341,3269,3420
2353,3269,3438
2364,3276,3475
2376,3275,3487
2388,3283,3497
2400,3272,3505
2412,3264,3512
2424,3248,3523
2435,3242,3511
2447,3229,3509
2459,3224,3486
2471,3232,3468
2483,3227,3442
2495,3232,3422
2506,3221,3393
2518,3221,3378
2530,3214,3359
2542,3212,3354
2554,3217,3344
2565,3227,3351
2577,3235,3355
2589,3233,3351
2601,3241,3344
2613,3250,3339
2625,3251,3329
2636,3261,3323
2648,3243,3319
2660,3234,3317
2672,3232,3312
2684,3237,3288
2696,3220,3277
2707,3222,3273
2719,3223,3267
2731,3213,3253
2743,3218,3257
2755,3231,3261
2767,3223,3270
2778,3224,3279
2790,3213,3287
2802,3219,3293
2814,3217,3292
2826,3212,3283
2838,3213,3282
2849,3218,3281
2861,3227,3263
2873,3225,3252
2885,3224,3231
2897,3219,3225
2908,3234,3220
2920,3214,3216
2932,3217,3207
2944,3227,3211
2956,3223,3216
2968,3224,3210
2979,3218,3199
2991,3225,3190
3003,3240,3184
3015,3244,3174
3027,3232,3177
3039,3219,3183
3050,3221,3181
3062,3224,3192
3074,3218,3190
3086,3226,3197
3098,3223,3193
3110,3235,3198
3121,3252,3206
3133,3266,3218
3145,3280,3248
3157,3274,3276
3169,3295,3304
3181,3289,3333
3192,3282,3368
3204,3279,3409
3216,3263,3444
3228,3257,3476
3240,3263,3512
3251,3258,3535
3263,3255,3558
3275,3258,3566
3287,3254,3559
3299,3253,3562
3311,3264,3562
3322,3280,3529
3334,3288,3518
3346,3285,3492
3358,3286,3463
3370,3274,3430
3382,3249,3405
3393,3225,3383
3405,3203,3368
3417,3190,3354
3429,3180,3325
3441,3183,3314
3453,3203,3318
3464,3217,3317
3476,3231,3320
3488,3241,3315
3500,3234,3315
3512,3245,3333
3524,3255,3335
3535,3263,3352
3547,3273,3350
3559,3272,3341
3571,3281,3344
3583,3275,3349
3595,3272,3335
3606,3254,3326
3618,3240,3322
3630,3235,3320
3642,3232,3312
3654,3231,3296
3666,3235,3275
3677,3232,3275
3689,3242,3280
3701,3240,3286
3713,3228,3289
3725,3218,3269
3736,3234,3266
3748,3228,3250
3760,3248,3240
3772,3237,3236
3784,3228,3221
3796,3224,3220
3807,3228,3211
3819,3232,3219
3831,3236,3219
3843,3227,3215
3855,3229,3217
3867,3231,3215
3878,3225,3210
3890,3226,3210
3902,3228,3206
3914,3212,3205
3926,3208,3215
3938,3197,3200
3949,3206,3193
3961,3212,3185
3973,3197,3180
3985,3186,3195
3997,3212,3217
4009,3221,3233
4020,3242,3261
4032,3245,3292
4044,3252,3321
4056,3262,3358
4068,3272,3412
4080,3268,3454
4091,3262,3504
4103,3258,3531
4115,3256,3550
4127,3240,3554
4139,3235,3547
4151,3251,3541
4162,3255,3516
4174,3269,3500
4186,3276,3479
4198,3267,3455
4210,3265,3433
4221,3250,3430
4233,3242,3403
4245,3221,3408
4257,3197,3404
4269,3169,3401
4281,3142,3396
4292,3134,3376
4304,3138,3352
4316,3151,3312
4328,3172,3299
4340,3190,3268
4352,3210,3246
4363,3226,3232
4375,3222,3228
4387,3220,3228
4399,3210,3215
4411,3197,3234
4423,3198,3245
4434,3195,3249
4446,3189,3257
4458,3189,3261
4470,3182,3257
4482,3196,3256
4493,3190,3256
4505,3197,3240
4517,3202,3247
4529,3224,3251
4541,3235,3266
4553,3232,3262
4564,3223,3260
4576,3222,3261
4588,3199,3253
4600,3183,3250
4612,3187,3238
4624,3184,3223
4635,3206,3217
4647,3220,3215
4659,3256,3219
4671,3285,3212
4683,3296,3208
4695,3313,3209
4706,3333,3217
4718,3321,3220
4730,3318,3230
4742,3320,3250
4754,3327,3244
4766,3324,3255
4777,3313,3283
4789,3316,3320
4801,3299,3351
4813,3292,3381
4825,3279,3432
4837,3275,3454
4848,3297,3496
4860,3302,3530
4872,3307,3572
4884,3302,3591
4896,3307,3609
4907,3318,3601
4919,3305,3602
4931,3298,3598
4943,3285,3568
4955,3261,3530
4967,3268,3485
4978,3263,3448
4990,3270,3420
5002,3274,3392
5014,3250,3375
5026,3230,3352
5038,3245,3337
5049,3242,3326
5061,3249,3316
5073,3254,3319
5085,3257,3310
5097,3259,3302
5109,3268,3303
5120,3288,3312
5132,3317,3318
5144,3320,3305
5156,3311,3303
5168,3310,3294
5180,3301,3302
5191,3297,3300
5203,3290,3305
5215,3260,3287
5227,3263,3279
5239,3254,3274
5251,3245,3264
5262,3237,3266
5274,3233,3267
5286,3233,3270
5298,3222,3267
5310,3213,3258
5321,3204,3236
5333,3213,3231
5345,3207,3228
5357,3202,3216
5369,3214,3211
5381,3206,3205
5392,3207,3185
5404,3217,3188
5416,3243,3183
5428,3243,3182
5440,3247,3181
5452,3241,3180
5463,3242,3180
5475,3238,3179
5487,3216,3172
5499,3207,3177
5511,3219,3173
5523,3232,3173
5534,3237,3189
5546,3267,3208
5558,3285,3248
5570,3303,3281
5582,3302,3321
5594,3309,3381
5605,3315,3437
5617,3324,3499
5629,3322,3547
5641,3324,3596
5653,3326,3627
5664,3316,3657
5676,3322,3685
5688,3313,3678
5700,3308,3647
5712,3312,3624
5724,3317,3594
5735,3319,3562
5747,3302,3520
5759,3306,3481
5771,3287,3432
5783,3285,3398
5795,3278,3372
5806,3267,3348
5818,3272,3331
5830,3259,3306
5842,3265,3292
5854,3264,3284
5866,3289,3276
5877,3277,3268
5889,3280,3270
5901,3277,3256
5913,3256,3245
5925,3252,3256
5937,3237,3257
5948,3230,3250
5960,3224,3260
5972,3218,3244
5984,3217,3236
5996,3226,3238
6008,3217,3225
6019,3207,3224
6031,3227,3235
6043,3235,3248
6055,3249,3245
6067,3245,3242
6078,3257,3241
6090,3260,3240
6102,3244,3229
6114,3232,3217
6126,3229,3207
6138,3224,3192
6149,3232,3183
6161,3228,3173
6173,3220,3165
6185,3209,3158
6197,3199,3146
6209,3189,3139
6220,3180,3125
6232,3193,3119
6244,3194,3126
6256,3191,3127
6268,3217,3152
6280,3236,3177
6291,3254,3202
6303,3293,3235
6315,3294,3270
6327,3306,3323
6339,3311,3368
6351,3340,3420
6362,3358,3481
6374,3371,3542
6386,3371,3585
6398,3365,3624
6410,3367,3627
6421,3360,3651
6433,3381,3651
6445,3392,3653
6457,3372,3632
6469,3369,3609
6481,3375,3574
6492,3358,3541
6504,3338,3515
6516,3329,3479
6528,3317,3440
6540,3305,3407
6552,3292,3369
6563,3287,3345
6575,3282,3325
6587,3271,3316
6599,3286,3313
6611,3280,3292
6623,3259,3291
6634,3257,3280
6646,3246,3286
6658,3242,3286
6670,3238,3285
6682,3247,3269
6694,3248,3261
6705,3253,3257
6717,3277,3249
6729,3259,3240
6741,3249,3233
6753,3240,3228
6764,3243,3223
6776,3253,3226
6788,3268,3225
6800,3266,3230
6812,3252,3220
6824,3254,3223
6835,3236,3212
6847,3236,3209
6859,3210,3203
6871,3197,3196
6883,3191,3168
6895,3191,3152
6906,3172,3129
6918,3170,3125
6930,3181,3112
6942,3184,3111
6954,3196,3117
6966,3200,3114
6977,3190,3120
6989,3197,3122
7001,3180,3118
7013,3172,3121
7025,3181,3118
7037,3178,3109
7048,3176,3097
7060,3179,3090
7072,3188,3079
7084,3207,3076
7096,3225,3074
7108,3249,3093
7119,3254,3125
7131,3272,3146
7143,3311,3200
7155,3322,3258
7167,3340,3330
7179,3348,3384
7190,3358,3440
7202,3373,3493
7214,3382,3539
7226,3382,3578
7238,3371,3606
7249,3372,3616
7261,3375,3626
7273,3355,3612
7285,3346,3596
7297,3320,3577
7309,3304,3559
7320,3294,3522
7332,3285,3482
7344,3271,3452
7356,3255,3407
7368,3242,3365
7380,3238,3337
7391,3225,3302
7403,3227,3274
7415,3234,3253
7427,3238,3238
7439,3220,3229
7451,3237,3225
7462,3237,3227
7474,3241,3226
7486,3239,3214
7498,3243,3217
7510,3241,3225
7521,3245,3234
7533,3256,3239
7545,3246,3233
7557,3243,3242
7569,3247,3238
7581,3232,3232
7592,3220,3242
7604,3236,3244
7616,3238,3240
7628,3235,3230
7640,3217,3209
7652,3203,3190
7663,3194,3174
7675,3183,3148
7687,3182,3131
7699,3181,3141
7711,3183,3144
7723,3189,3143
7734,3189,3124
7746,3196,3127
7758,3184,3122
7770,3176,3112
7782,3178,3108
7794,3172,3087
7805,3153,3086
7817,3160,3083
7829,3175,3098
7841,3195,3115
7853,3213,3116
7865,3226,3123
7876,3257,3119
7888,3270,3116
7900,3302,3105
7912,3320,3092
7924,3317,3080
7935,3320,3073
7947,3322,3082
7959,3331,3115
7971,3323,3137
7983,3319,3156
7995,3304,3182
8006,3307,3220
8018,3323,3272
8030,3329,3318
8042,3348,3367
8054,3340,3406
8066,3354,3448
8077,3353,3492
8089,3347,3535
8101,3348,3542
8113,3333,3556
8125,3333,3547
8137,3312,3529
8148,3301,3506
8160,3302,3494
8172,3299,3471
8184,3301,3431
8196,3294,3392
8208,3302,3344
8219,3290,3303
8231,3294,3257
8243,3284,3233
8255,3269,3209
8267,3255,3195
8279,3260,3188
8290,3257,3176
8302,3261,3172
8314,3261,3168
8326,3265,3180
8338,3243,3190
8349,3246,3205
8361,3242,3207
8373,3236,3221
8385,3241,3243
8397,3246,3244
8409,3249,3243
8420,3254,3228
8432,3252,3226
8444,3253,3202
8456,3261,3203
8468,3266,3182
8480,3287,3190
8491,3289,3168
8503,3291,3160
8515,3290,3145
8527,3282,3112
8539,3265,3101
8551,3249,3091
8562,3217,3079
8574,3201,3070
8586,3197,3082
8598,3181,3081
8610,3178,3080
8622,3192,3104
8633,3182,3103
8645,3185,3106
8657,3188,3092
8669,3181,3090
8681,3186,3096
8692,3195,3071
8704,3209,3073
8716,3221,3055
8728,3228,3063
8740,3224,3059
8752,3210,3052
8763,3195,3039
8775,3185,3049
8787,3173,3048
8799,3158,3032
8811,3148,3021
8823,3145,3005
8834,3155,3017
8846,3174,3026
8858,3194,3037
8870,3217,3048
8882,3257,3091
8894,3288,3137
8905,3307,3176
8917,3331,3242
8929,3352,3286
8941,3360,3349
8953,3371,3394
8965,3371,3431
8976,3365,3452
8988,3358,3473
9000,3362,3475
9012,3360,3472
9024,3336,3444
9036,3320,3420
9047,3308,3405
9059,3286,3370
9071,3288,3353
9083,3289,3328
9095,3282,3295
9107,3269,3265
9118,3256,3232
9130,3228,3201
9142,3209,3185
9154,3212,3162
9166,3207,3154
9178,3212,3144
9189,3222,3153
9201,3226,3150
9213,3233,3153
9225,3253,3163
9237,3262,3148
9249,3258,3144
9260,3252,3151
9272,3255,3144
9284,3251,3135
9296,3230,3140
9308,3205,3142
9319,3203,3125
9331,3206,3128
9343,3206,3121
9355,3208,3109
9367,3230,3099
9379,3229,3093
9390,3219,3092
9402,3223,3100
9414,3212,3097
9426,3197,3089
9438,3181,3079
9450,3179,3075
9461,3173,3069
9473,3160,3053
9485,3160,3057
9497,3152,3033
9509,3145,3028
9521,3154,3031
9532,3149,3021
9544,3137,3022
9556,3152,3023
9568,3147,3020
9580,3141,3008
9591,3155,3001
9603,3163,3024
9615,3163,3020
9627,3154,3008
9639,3157,3004
9651,3155,3011
9662,3166,3010
9674,3173,3009
9686,3180,3016
9698,3191,3012
9710,3200,3030
9722,3215,3039
9733,3232,3043
9745,3249,3044
9757,3251,3062
9769,3266,3077
9781,3280,3099
9793,3288,3121
9804,3302,3157
9816,3302,3195
9828,3313,3221
9840,3287,3260
9852,3279,3285
9864,3269,3310
9875,3258,3316
9887,3253,3323
9899,3262,3335
9911,3272,3327
9923,3269,3311
9935,3269,3304
9946,3278,3295
9958,3305,3286
9970,3306,3281
9982,3299,3259
9994,3290,3250
10005,3287,3233
10017,3276,3208
10029,3260,3183
10041,3243,3172
10053,3225,3173
10065,3220,3156
10076,3198,3144
10088,3183,3127
10100,3189,3122
10112,3185,3112
10124,3181,3107
10136,3194,3108
10147,3196,3109
10159,3205,3124
10171,3197,3124
10183,3206,3129
10195,3207,3132
10207,3216,3122
10218,3224,3114
10230,3231,3119
10242,3221,3109
10254,3217,3095
10266,3218,3086
10278,3210,3081
10289,3193,3074
10301,3184,3084
10313,3196,3086
10325,3177,3079
10337,3170,3072
10348,3172,3062
10360,3171,3060
10372,3160,3053
10384,3152,3043
10396,3139,3036
10408,3136,3031
10419,3128,3033
10431,3113,3035
10443,3118,3045
10455,3107,3047
10467,3113,3057
10479,3113,3061
10490,3116,3053
10502,3121,3048
10514,3123,3035
10526,3109,3020
10538,3109,2998
10550,3113,2991
10561,3109,2981
10573,3098,2975
10585,3102,2981
10597,3097,2988
10609,3090,2992
10621,3099,3003
10632,3106,3026
10644,3132,3036
10656,3161,3049
10668,3195,3067
10680,3218,3069
10692,3249,3073
10703,3262,3058
10715,3286,3071
10727,3296,3060
10739,3304,3083
10751,3301,3114
10763,3302,3146
10774,3291,3172
10786,3287,3210
10798,3288,3242
10810,3288,3258
10822,3282,3265
10834,3279,3272
10845,3262,3266
10857,3243,3262
10869,3221,3248
10881,3211,3232
10893,3209,3229
10904,3202,3197
10916,3210,3188
10928,3213,3185
10940,3206,3168
10952,3196,3161
10964,3188,3139
10975,3168,3135
10987,3165,3131
10999,3151,3111
11011,3131,3098
11023,3129,3095
11035,3132,3096
11046,3127,3088
11058,3135,3084
11070,3121,3086
11082,3117,3085
11094,3134,3085
11106,3136,3093
11117,3140,3098
11129,3144,3103
11141,3149,3108
11153,3156,3109
11165,3165,3103
11177,3165,3112
11188,3182,3103
11200,3207,3101
11212,3222,3104
11224,3235,3113
11236,3238,3098
11248,3243,3111
11259,3245,3111
11271,3234,3100
11283,3225,3091
11295,3196,3074
11307,3177,3067
11319,3164,3060
11330,3143,3058
11342,3122,3069
11354,3124,3074
11366,3115,3070
11378,3108,3073
11390,3099,3083
11401,3105,3080
11413,3101,3082
11425,3101,3076
11437,3122,3075
11449,3120,3071
11460,3119,3062
11472,3139,3073
11484,3150,3071
11496,3196,3082
11508,3228,3078
11520,3243,3075
11531,3272,3075
11543,3278,3069
11555,3282,3074
11567,3270,3081
11579,3267,3086
11591,3255,3095
11602,3253,3089
11614,3239,3097
11626,3246,3112
11638,3255,3125
11650,3254,3150
11662,3248,3164
11673,3236,3191
11685,3228,3213
11697,3223,3230
11709,3218,3250
11721,3215,3264
11733,3223,3262
11744,3231,3262
11756,3249,3232
11768,3259,3210
11780,3272,3194
11792,3272,3174
11804,3248,3163
11815,3233,3160
11827,3220,3159
11839,3201,3157
11851,3180,3152
11863,3157,3146
11875,3161,3147
11886,3151,3140
11898,3144,3143
11910,3157,3136
11922,3156,3142
11934,3164,3145
11946,3173,3141
11957,3156,3143
11969,3172,3122
11981,3187,3114
11993,3182,3091
12005,3173,3085
12017,3167,3084
12028,3160,3094
12040,3146,3094
12052,3147,3110
12064,3151,3114
12076,3162,3126
12087,3174,3125
12099,3171,3127
12111,3176,3120
12123,3199,3112
12135,3212,3122
12147,3211,3112
12158,3200,3095
12170,3203,3088
12182,3197,3103
12194,3181,3100
12206,3184,3106
12218,3168,3108
12229,3170,3112
12241,3169,3116
12253,3155,3125
12265,3156,3118
12277,3156,3128
12289,3151,3138
12300,3137,3126
12312,3141,3110
12324,3153,3103
12336,3164,3106
12348,3165,3097
12360,3162,3082
12371,3159,3064
12383,3158,3056
12395,3163,3050
12407,3164,3043
12419,3153,3050
12431,3161,3057
12442,3145,3054
12454,3133,3059
12466,3125,3073
12478,3124,3081
12490,3131,3085
12502,3129,3070
12513,3135,3083
12525,3144,3098
12537,3168,3118
12549,3188,3151
12561,3209,3174
12573,3209,3194
12584,3221,3238
12596,3231,3261
12608,3244,3281
12620,3282,3304
12632,3296,3315
12643,3306,3328
12655,3315,3310
12667,3301,3293
12679,3288,3287
12691,3302,3272
12703,3293,3248
12714,3293,3255
12726,3283,3238
12738,3257,3240
12750,3222,3235
12762,3211,3211
12774,3202,3199
12785,3175,3189
12797,3172,3193
12809,3167,3185
12821,3159,3176
12833,3153,3165
12845,3153,3145
12856,3159,3126
12868,3182,3122
12880,3234,3142
12892,3299,3159
12904,3372,3184
12916,3438,3209
12927,3477,3244
12939,3469,3266
12951,3430,3279
12963,3373,3296
12975,3300,3306
12987,3223,3312
12998,3169,3294
13010,3138,3258
13022,3130,3231
13034,3140,3186
13046,3161,3152
13058,3210,3122
13069,3269,3117
13081,3312,3108
13093,3358,3106
13105,3386,3123
13117,3403,3123
13128,3423,3127
13140,3413,3153
13152,3392,3165
13164,3385,3188
13176,3366,3194
13188,3315,3208
13199,3286,3200
13211,3273,3199
13223,3269,3187
13235,3268,3176
13247,3263,3156
13259,3271,3155
13270,3285,3161
13282,3323,3170
13294,3354,3173
13306,3370,3161
13318,3370,3169
13330,3366,3171
13341,3359,3171
13353,3360,3166
13365,3367,3169
13377,3370,3166
13389,3356,3174
13401,3337,3173
13412,3320,3196
13424,3317,3205
13436,3312,3228
13448,3310,3256
13460,3292,3261
13472,3314,3273
13483,3436,3271
13495,3648,3290
13507,3874,3297
13519,4057,3309
13531,4095,3373
13543,4095,3456
13554,4095,3529
13566,4058,3583
13578,3919,3624
13590,3748,3653
13602,3562,3673
13614,3410,3695
13625,3260,3710
13637,3155,3706
13649,3102,3701
13661,3078,3684
13673,3101,3659
13685,3142,3644
13696,3187,3652
13708,3225,3667
13720,3273,3694
13732,3319,3703
13744,3420,3704
13755,3477,3694
13767,3533,3673
13779,3585,3653
13791,3621,3629
13803,3644,3575
13815,3648,3495
13826,3640,3410
13838,3612,3320
13850,3570,3253
13862,3507,3198
13874,3472,3187
13886,3458,3219
13897,3464,3282
13909,3475,3403
13921,3492,3568
13933,3499,3748
13945,3501,3941
13957,3509,4095
13968,3524,4095
13980,3541,4095
13992,3547,4095
14004,3552,4095
14016,3539,4095
14028,3500,4095
14039,3429,4095
14051,3430,4095
14063,3434,4095
14075,3421,4095
14087,3414,4095
14099,3409,4095
14110,3409,4095
14122,3402,4095
14134,3405,4095
14146,3413,4095
14158,3439,4095
14170,3469,4095
14181,3487,4095
14193,3508,4095
14205,3492,4095
14217,3503,4095
14229,3502,4095
14241,3495,4095
14252,3481,4095
14264,3467,4095
14276,3459,4095
14288,3482,4095
14300,3490,4095
14311,3509,4095
14323,3555,4095
14335,3596,4095
14347,3609,4095
14359,3641,4095
14371,3651,4095
14382,3642,4095
14394,3623,4095
14406,3599,4095
14418,3585,4095
14430,3575,4095
14442,3582,4095
14453,3598,4095
14465,3607,4095
14477,3628,4095
14489,3661,4095
14501,3671,4095
14513,3711,4095
14524,3708,4095
14536,3667,4095
14548,3602,3603
14560,3543,3161
14572,3510,2874
14584,3513,2731
14595,3497,2721
14607,3493,2788
14619,3472,2913
14631,3454,3069
14643,3449,3217
14655,3446,3357
14666,3455,3490
14678,3420,3593
14690,3400,3670
14702,3373,3700
14714,3359,3732
14726,3362,3734
14737,3359,3735
14749,3371,3713
14761,3399,3711
14773,3421,3690
14785,3436,3690
14797,3431,3674
14808,3415,3646
14820,3407,3627
14832,3398,3626
14844,3378,3615
14856,3363,3594
14867,3344,3571
14879,3335,3532
14891,3326,3482
14903,3347,3429
14915,3371,3396
14927,3375,3362
14938,3379,3345
14950,3362,3308
14962,3360,3297
14974,3341,3282
14986,3322,3282
14998,3312,3277
15009,3295,3282
15021,3280,3286
15033,3270,3295
15045,3284,3320
15057,3295,3333
15069,3297,3341
15080,3288,3346
15092,3295,3346
15104,3304,3356
15116,3310,3357
15128,3317,3392
15140,3338,3421
15151,3359,3443
15163,3359,3466
15175,3366,3487
15187,3386,3495
15199,3395,3509
15211,3389,3512
15222,3365,3501
15234,3346,3498
15246,3306,3479
15258,3265,3443
15270,3257,3416
15282,3237,3382
15293,3225,3348
15305,3193,3323
15317,3186,3293
15329,3171,3272
15341,3170,3257
15353,3174,3237
15364,3172,3214
15376,3206,3204
15388,3208,3182
15400,3205,3167
15412,3206,3167
15423,3200,3157
15435,3200,3138
15447,3205,3121
15459,3201,3115
15471,3230,3111
15483,3258,3110
15494,3288,3095
15506,3303,3090
15518,3297,3087
15530,3294,3089
15542,3284,3080
15554,3279,3088
15565,3269,3098
15577,3269,3101
15589,3267,3112
15601,3263,3119
15613,3257,3146
15625,3252,3153
15636,3255,3163
15648,3253,3193
15660,3245,3195
15672,3233,3221
15684,3199,3227
15696,3199,3226
15707,3201,3234
15719,3198,3223
15731,3207,3205
15743,3208,3192
15755,3214,3181
15767,3217,3152
15778,3206,3132
15790,3193,3131
15802,3181,3133
15814,3166,3120
15826,3153,3123
15838,3149,3137
15849,3145,3158
15861,3151,3175
15873,3169,3209
15885,3190,3247
15897,3208,3285
15909,3220,3323
15920,3234,3369
15932,3249,3391
15944,3264,3426
15956,3273,3449
15968,3299,3468
15980,3303,3493
15991,3304,3502
16003,3292,3509
16015,3258,3492
16027,3248,3491
16039,3226,3463
16051,3204,3441
16062,3186,3410
16074,3185,3384
16086,3178,3353
16098,3171,3312
16110,3185,3290
16122,3184,3280
16133,3195,3262
16145,3218,3259
16157,3233,3266
16169,3246,3264
16181,3238,3276
16193,3233,3274
16204,3217,3261
16216,3228,3257
16228,3230,3256
16240,3232,3257
16252,3233,3259
16264,3261,3259
16275,3268,3276
16287,3278,3272
16299,3280,3275
16311,3271,3284
16323,3265,3290
16334,3270,3299
16346,3292,3319
16358,3289,3334
16370,3275,3346
16382,3263,3379
16394,3227,3402
16405,3195,3403
16417,3192,3399
16429,3193,3396
16441,3205,3406
16453,3213,3389
16465,3212,3368
16476,3235,3380
16488,3248,3388
16500,3261,3400
16512,3264,3398
16524,3264,3388
16536,3256,3381
16547,3246,3370
16559,3239,3360
16571,3229,3342
16583,3229,3325
16595,3226,3295
16607,3233,3276
16618,3243,3250
16630,3242,3246
16642,3243,3269
16654,3254,3309
16666,3275,3348
16678,3299,3397
16689,3342,3446
16701,3376,3500
16713,3391,3548
16725,3412,3613
16737,3410,3654
16749,3420,3700
16760,3421,3731
16772,3407,3742
16784,3395,3759
16796,3366,3752
16808,3361,3739
16820,3352,3718
16831,3337,3681
16843,3343,3656
16855,3345,3652
16867,3348,3636
16879,3345,3610
16891,3326,3572
16902,3311,3545
16914,3288,3509
16926,3280,3486
16938,3282,3478
16950,3302,3461
16962,3303,3461
16973,3299,3463
16985,3291,3459
16997,3297,3462
17009,3291,3452
17021,3291,3449
17032,3300,3462
17044,3303,3469
17056,3292,3469
17068,3265,3461
17080,3256,3459
17092,3235,3456
17103,3242,3447
17115,3251,3456
17127,3253,3457
17139,3259,3467
17151,3263,3485
17163,3261,3485
17174,3266,3501
17186,3292,3497
17198,3289,3497
17210,3308,3486
17222,3309,3479
17234,3309,3467
17245,3286,3442
17257,3293,3427
17269,3291,3416
17281,3291,3384
17293,3274,3362
17305,3256,3331
17316,3236,3310
17328,3220,3288
17340,3229,3277
17352,3221,3270
17364,3227,3272
17376,3227,3261
17387,3219,3274
17399,3236,3275
17411,3257,3285
17423,3257,3286
17435,3257,3288
17447,3247,3287
17458,3240,3298
17470,3217,3295
17482,3208,3307
17494,3181,3304
17506,3212,3314
17518,3228,3332
17529,3240,3358
17541,3252,3391
17553,3277,3443
17565,3287,3510
17577,3296,3568
17589,3312,3637
17600,3326,3698
17612,3331,3759
17624,3342,3811
17636,3328,3840
17648,3339,3864
17660,3343,3879
17671,3335,3877
17683,3334,3871
17695,3341,3838
17707,3332,3817
17719,3331,3783
17731,3321,3745
17742,3316,3714
17754,3310,3680
17766,3306,3630
17778,3303,3594
17790,3297,3559
17802,3297,3528
17813,3289,3499
17825,3282,3498
17837,3270,3487
17849,3278,3489
17861,3264,3487
17873,3269,3472
17884,3263,3471
17896,3274,3457
17908,3265,3451
17920,3252,3443
17932,3260,3437
17944,3258,3436
17955,3236,3438
17967,3235,3443
17979,3235,3437
17991,3241,3433
18003,3235,3423
18015,3244,3420
18026,3254,3416
18038,3281,3410
18050,3278,3395
18062,3286,3391
18074,3280,3383
18086,3267,3369
18097,3260,3368
18109,3249,3348
18121,3249,3325
18133,3257,3312
18145,3258,3289
18157,3264,3256
18168,3265,3247
18180,3286,3234
18192,3286,3236
18204,3291,3236
18216,3287,3247
18227,3289,3254
18239,3293,3268
18251,3276,3269
18263,3249,3287
18275,3220,3299
18287,3193,3312
18298,3167,3320
18310,3179,3316
18322,3183,3304
18334,3187,3294
18346,3207,3282
18358,3231,3276
18369,3267,3282
18381,3269,3278
18393,3284,3283
18405,3288,3293
18417,3304,3313
18429,3317,3343
18440,3330,3388
18452,3330,3431
18464,3332,3511
18476,3335,3569
18488,3344,3640
18500,3363,3721
18511,3354,3778
18523,3343,3824
18535,3339,3861
18547,3336,3874
18559,3336,3884
18571,3351,3874
18582,3368,3858
18594,3366,3828
18606,3390,3804
18618,3400,3759
18630,3412,3722
18642,3414,3683
18653,3403,3626
18665,3381,3573
18677,3355,3552
18689,3329,3518
18701,3311,3501
18713,3311,3479
18724,3320,3453
18736,3325,3437
18748,3331,3413
18760,3323,3403
18772,3321,3390
18784,3320,3391
18795,3322,3384
18807,3320,3384
18819,3318,3389
18831,3323,3384
18843,3306,3382
18855,3292,3390
18866,3281,3393
18878,3267,3410
18890,3271,3418
18902,3263,3422
18914,3256,3426
18926,3250,3421
18937,3245,3426
18949,3250,3418
18961,3271,3406
18973,3297,3393
18985,3308,3375
18997,3312,3372
19008,3307,3357
19020,3305,3350
19032,3311,3343
19044,3314,3333
19056,3317,3329
19068,3310,3297
19079,3302,3282
19091,3307,3270
19103,3316,3249
19115,3305,3252
19127,3295,3253
19139,3303,3261
19150,3309,3262
19162,3302,3249
19174,3306,3236
19186,3295,3232
19198,3291,3220
19210,3267,3209
19221,3270,3196
19233,3252,3183
19245,3229,3178
19257,3196,3173
19269,3199,3177
19281,3200,3179
19292,3227,3193
19304,3256,3230
19316,3288,3271
19328,3295,3328
19340,3335,3398
19352,3361,3473
19363,3404,3565
19375,3414,3635
19387,3434,3711
19399,3450,3759
19411,3444,3805
19422,3452,3841
19434,3443,3851
19446,3438,3863
19458,3425,3842
19470,3409,3828
19482,3396,3797
19494,3374,3769
19505,3354,3730
19517,3347,3695
19529,3345,3656
19541,3321,3605
19553,3293,3559
19565,3276,3505
19576,3252,3471
19588,3259,3453
19600,3266,3436
19612,3285,3409
19624,3300,3363
19635,3316,3347
19647,3305,3322
19659,3302,3313
19671,3296,3295
19683,3290,3285
19695,3280,3281
19706,3280,3281
19718,3277,3286
19730,3283,3300
19742,3298,3318
19754,3294,3314
19766,3300,3321
19777,3301,3330
19789,3276,3342
19801,3261,3334
19813,3263,3335
19825,3262,3337
19837,3288,3342
19848,3302,3324
19860,3306,3306
19872,3303,3288
19884,3287,3272
19896,3287,3254
19908,3280,3234
19919,3272,3215
19931,3255,3188
19943,3256,3176
19955,3246,3176
19967,3237,3164
19979,3235,3149
19990,3229,3144
20002,3224,3140
20014,3207,3137
20026,3220,3139
20038,3222,3139
20050,3228,3152
20061,3222,3150
20073,3233,3143
20085,3258,3143
20097,3255,3151
20109,3242,3157
20121,3233,3156
20132,3218,3145
20144,3216,3131
20156,3202,3130
20168,3184,3111
20180,3182,3104
20191,3162,3089
20203,3160,3086
20215,3188,3092
20227,3210,3105
20239,3224,3124
20251,3247,3157
20262,3272,3191
20274,3301,3259
20286,3318,3330
20298,3361,3390
20310,3383,3463
20322,3405,3531
20334,3431,3596
20345,3446,3658
20357,3452,3701
20369,3433,3738
20381,3416,3744
20393,3408,3742
20405,3394,3731
20416,3374,3698
20428,3351,3666
20440,3335,3623
20452,3327,3579
20464,3333,3514
20475,3349,3458
20487,3344,3401
20499,3360,3348
20511,3348,3302
20523,3340,3267
20535,3334,3229
20546,3313,3206
20558,3294,3178
20570,3256,3150
20582,3218,3113
20594,3181,3057
20606,3119,2990
20617,3060,2902
20629,2994,2802
20641,2921,2697
20653,2820,2585
20665,2709,2482
20677,2562,2356
20689,2459,2237
20700,2418,2085
20712,2426,1940
20724,2459,1808
20736,2539,1681
20748,2621,1594
20760,2721,1565
20771,2821,1563
20783,2904,1600
20795,2989,1652
20807,3023,1680
20819,2992,1708
20831,2871,1798
20842,2692,1877
20854,2493,1931
20866,2259,1939
20878,2042,1925
20890,1845,1883
20902,1646,1809
20913,1478,1712
20925,1390,1592
20937,1441,1452
20949,1606,1311
20961,1834,1201
20972,2093,1107
20984,2335,1028
20996,2566,962
21008,2759,902
21020,2905,870
21032,3025,854
21043,3105,888
21055,3158,934
21067,3165,1009
21079,3168,1086
21091,3173,1158
21103,3174,1208
21114,3178,1246
21126,3179,1269
21138,3188,1259
21150,3190,1245
21162,3177,1237
21173,3195,1251
21185,3196,1306
21197,3213,1397
21209,3217,1533
21221,3245,1680
21233,3275,1847
21244,3303,2009
21256,3342,2166
21268,3393,2295
21280,3430,2424
21292,3459,2538
21304,3484,2659
21315,3511,2765
21327,3517,2879
21339,3526,2996
21351,3519,3125
21363,3517,3232
21375,3518,3332
21386,3497,3396
21398,3493,3447
21410,3472,3492
21422,3458,3513
21434,3419,3505
21446,3403,3499
21457,3388,3477
21469,3384,3446
21481,3364,3422
21493,3366,3385
21505,3353,3357
21517,3357,3323
21528,3367,3315
21540,3381,3306
21552,3384,3311
21564,3378,3312
21576,3361,3326
21588,3353,3321
21599,3362,3325
21611,3367,3319
21623,3388,3323
21635,3404,3331
21647,3438,3326
21659,3450,3325
21670,3434,3327
21682,3439,3323
21694,3431,3312
21706,3430,3291
21718,3420,3283
21730,3406,3267
21741,3402,3246
21753,3403,3228
21765,3399,3212
21777,3387,3200
21789,3365,3185
21801,3339,3173
21812,3323,3177
21824,3303,3174
21836,3296,3170
21848,3290,3174
21860,3287,3163
21872,3297,3147
21883,3299,3151
21895,3296,3137
21907,3287,3122
21919,3275,3121
21931,3272,3107
21943,3281,3109
21954,3290,3117
21966,3277,3115
21978,3275,3104
21990,3255,3091
22002,3253,3083
22014,3240,3085
22025,3242,3072
22037,3253,3070
22049,3265,3087
22061,3288,3098
22073,3316,3149
22085,3356,3196
22096,3385,3274
22108,3407,3346
22120,3450,3422
22132,3480,3503
22144,3510,3567
22156,3529,3617
22167,3554,3686
22179,3578,3739
22191,3585,3766
22203,3584,3776
22215,3600,3771
22227,3584,3738
22238,3575,3712
22250,3549,3669
22262,3542,3632
22274,3511,3580
22286,3490,3535
22298,3462,3493
22309,3457,3460
22321,3435,3420
22333,3430,3389
22345,3421,3371
22357,3392,3335
22369,3375,3322
22380,3340,3284
22392,3313,3267
22404,3290,3254
22416,3277,3248
22428,3281,3260
22440,3302,3262
22451,3324,3269
22463,3345,3275
22475,3370,3261
22487,3391,3252
22499,3411,3250
22511,3411,3246
22522,3405,3228
22534,3406,3214
22546,3402,3204
22558,3398,3191
22570,3389,3193
22582,3387,3194
22593,3369,3188
22605,3334,3186
22617,3320,3169
22629,3304,3158
22641,3282,3136
22653,3269,3138
22664,3267,3122
22676,3274,3117
22688,3270,3115
22700,3262,3122
22712,3254,3119
22724,3242,3110
22735,3245,3111
22747,3265,3106
22759,3268,3096
22771,3262,3093
22783,3255,3094
22795,3240,3099
22806,3213,3083
22818,3194,3073
22830,3179,3050
22842,3162,3041
22854,3170,3024
22866,3171,3004
22877,3176,2999
22889,3202,3001
22901,3202,3009
22913,3218,3017
22925,3201,3043
22937,3191,3078
22948,3182,3129
22960,3181,3183
22972,3186,3251
22984,3196,3315
22996,3231,3396
23008,3276,3463
23019,3342,3518
23031,3393,3572
23043,3441,3604
23055,3474,3624
23067,3513,3650
23079,3550,3654
23090,3552,3643
23102,3545,3626
23114,3527,3600
23126,3471,3575
23138,3422,3531
23150,3397,3493
23161,3375,3452
23173,3348,3419
23185,3328,3380
23197,3317,3355
23209,3337,3335
23221,3358,3308
23232,3367,3292
23244,3368,3284
23256,3383,3281
23268,3397,3276
23280,3410,3253
23292,3416,3240
23303,3426,3234
23315,3409,3238
23327,3403,3236
23339,3383,3237
23351,3365,3259
23363,3345,3266
23374,3328,3269
23386,3325,3276
23398,3326,3277
23410,3297,3272
23422,3295,3254
23434,3282,3230
23445,3286,3226
23457,3294,3211
23469,3302,3198
23481,3309,3176
23493,3315,3151
23505,3329,3135
23516,3344,3130
23528,3342,3106
23540,3350,3101
23552,3359,3100
23564,3362,3082
23576,3346,3068
23587,3333,3064
23599,3309,3059
23611,3282,3052
23623,3269,3073
23635,3241,3066
23647,3220,3068
23658,3200,3063
23670,3203,3055
23682,3200,3051
23694,3211,3039
23706,3233,3042
23717,3271,3046
23729,3304,3071
23741,3361,3115
23753,3416,3161
23765,3466,3207
23777,3510,3267
23789,3532,3343
23800,3559,3403
23812,3585,3463
23824,3594,3510
23836,3598,3552
23848,3611,3602
23860,3591,3618
23871,3573,3641
23883,3555,3638
23895,3523,3629
23907,3483,3610
23919,3449,3576
23931,3429,3532
23942,3410,3482
23954,3391,3425
23966,3390,3378
23978,3382,3343
23990,3379,3321
24002,3366,3295
24013,3358,3287
24025,3343,3272
24037,3327,3258
24049,3305,3236
24061,3290,3231
24073,3300,3217
24084,3298,3222
24096,3307,3199
24108,3307,3190
24120,3304,3177
24132,3301,3185
24144,3302,3184
24155,3297,3185
24167,3290,3201
24179,3288,3192
24191,3281,3171
24203,3268,3173
24215,3258,3167
24226,3265,3160
24238,3270,3159
24250,3281,3146
24262,3285,3134
24274,3288,3133
24286,3287,3126
24297,3272,3113
24309,3257,3105
24321,3230,3087
24333,3222,3080
24345,3213,3076
24357,3206,3071
24368,3198,3065
24380,3210,3062
24392,3208,3052
24404,3199,3051
24416,3189,3034
24428,3203,3038
24439,3198,3032
24451,3195,3042
24463,3198,3052
24475,3203,3054
24487,3202,3062
24499,3214,3083
24510,3221,3095
24522,3244,3100
24534,3272,3125
24546,3301,3153
24558,3346,3201
24570,3388,3243
24581,3424,3300
24593,3461,3353
24605,3482,3416
24617,3502,3469
24629,3535,3522
24641,3537,3567
24652,3535,3591
24664,3525,3616
24676,3534,3622
24688,3527,3619
24700,3505,3601
24712,3480,3579
24723,3453,3529
24735,3418,3492
24747,3402,3457
24759,3364,3404
24771,3326,3362
24783,3310,3318
24794,3300,3288
24806,3292,3261
24818,3284,3240
24830,3266,3218
24842,3263,3202
24854,3235,3188
24865,3221,3178
24877,3217,3165
24889,3205,3162
24901,3201,3166
24913,3213,3174
24925,3207,3172
24936,3210,3179
24948,3220,3180
24960,3224,3167
24972,3227,3158
24984,3225,3154
24996,3233,3140
25008,3236,3144
25019,3229,3128
25031,3213,3118
25043,3209,3129
25055,3184,3127
25067,3173,3125
25079,3171,3119
25090,3168,3112
25102,3170,3109
25114,3177,3107
25126,3179,3111
25138,3173,3093
25150,3162,3080
25161,3169,3070
25173,3173,3065
25185,3167,3055
25197,3161,3048
25209,3160,3056
25221,3154,3059
25232,3132,3065
25244,3108,3073
25256,3102,3063
25268,3073,3059
25280,3068,3046
25292,3064,3043
25303,3101,3030
25315,3133,3031
25327,3165,3025
25339,3199,3053
25351,3240,3083
25363,3288,3142
25374,3334,3185
25386,3394,3247
25398,3447,3317
25410,3495,3377
25422,3503,3439
25434,3524,3487
25445,3516,3515
25457,3514,3551
25469,3500,3564
25481,3492,3569
25493,3462,3555
25504,3427,3532
25516,3408,3501
25528,3371,3471
25540,3345,3429
25552,3308,3385
25564,3260,3331
25575,3227,3285
25587,3219,3246
25599,3216,3202
25611,3200,3180
25623,3197,3164
25635,3186,3154
25646,3182,3143
25658,3174,3143
25670,3171,3134
25682,3170,3121
25694,3171,3116
25706,3188,3113
25718,3198,3127
25729,3209,3122
25741,3215,3138
25753,3212,3132
25765,3229,3133
25777,3233,3123
25789,3235,3130
25800,3218,3114
25812,3209,3109
25824,3201,3103
25836,3189,3102
25848,3172,3096
25860,3147,3098
25871,3148,3087
25883,3163,3079
25895,3152,3075
25907,3137,3076
25919,3127,3072
25931,3127,3079
25942,3137,3091
25954,3148,3094
25966,3172,3095
25978,3168,3099
25990,3160,3090
26002,3141,3080
26013,3129,3064
26025,3108,3052
26037,3076,3041
26049,3055,3046
26061,3021,3044
26073,3006,3030
26084,2982,3030
26096,2965,3019
26108,2972,3010
26120,2983,2990
26132,2989,2972
26144,3011,2984
26155,3033,2979
26167,3052,2993
26179,3096,3018
26191,3130,3046
26203,3155,3079
26215,3198,3131
26227,3230,3189
26238,3259,3237
26250,3274,3293
26262,3284,3350
26274,3285,3386
26286,3303,3421
26298,3329,3440
26309,3348,3467
26321,3344,3468
26333,3335,3454
26345,3315,3431
26357,3275,3388
26369,3221,3353
26380,3183,3313
26392,3134,3264
26404,3078,3205
26416,3052,3142
26428,3039,3083
26440,3026,3024
26451,3006,2983
26463,3005,2944
26475,3004,2910
26487,3013,2890
26499,3041,2866
26511,3056,2872
26522,3068,2861
26534,3062,2866
26546,3055,2888
26558,3057,2914
26570,3056,2929
26582,3054,2951
26593,3055,2994
26605,3055,3031
26617,3067,3064
26629,3086,3098
26641,3091,3120
26653,3094,3151
26664,3098,3176
26676,3097,3212
26688,3121,3235
26700,3113,3246
26712,3103,3261
26724,3098,3269
26735,3092,3286
26747,3066,3298
26759,3046,3298
26771,3016,3304
26783,2999,3293
26795,2985,3285
26806,2988,3258
26818,2988,3238
26830,2993,3215
26842,2985,3205
26854,2991,3168
26866,2997,3143
26878,3003,3120
26889,3012,3093
26901,3035,3074
26913,3037,3056
26925,3050,3017
26937,3047,2982
26949,3041,2951
26960,3048,2921
26972,3019,2898
26984,3001,2895
26996,2981,2883
27008,2982,2889
27020,3004,2902
27031,3024,2918
27043,3065,2938
27055,3100,2978
27067,3148,3023
27079,3185,3071
27091,3206,3107
27102,3228,3147
27114,3261,3170
27126,3266,3197
27138,3276,3198
27150,3272,3218
27162,3247,3210
27173,3234,3210
27185,3220,3198
27197,3179,3182
27209,3145,3170
27221,3084,3137
27233,3057,3108
27244,3028,3082
27256,3027,3076
27268,3027,3082
27280,3018,3070
27292,3034,3079
27304,3056,3096
27316,3086,3109
27327,3110,3111
27339,3121,3120
27351,3132,3111
27363,3121,3123
27375,3119,3141
27387,3104,3137
27398,3092,3135
27410,3085,3126
27422,3097,3124
27434,3097,3129
27446,3113,3131
27458,3120,3134
27469,3120,3144
27481,3123,3153
27493,3124,3157
27505,3129,3159
27517,3128,3151
27529,3126,3151
27540,3113,3139
27552,3109,3129
27564,3102,3113
27576,3100,3099
27588,3088,3098
27600,3073,3096
27611,3070,3091
27623,3069,3101
27635,3060,3104
27647,3062,3122
27659,3075,3127
27671,3073,3126
27682,3084,3115
27694,3083,3108
27706,3080,3104
27718,3080,3091
27730,3075,3073
27742,3081,3065
27753,3107,3063
27765,3112,3085
27777,3129,3092
27789,3146,3109
27801,3163,3118
27813,3168,3142
27824,3184,3169
27836,3184,3212
27848,3195,3242
27860,3208,3272
27872,3194,3300
27884,3178,3323
27895,3194,3347
27907,3210,3359
27919,3211,3363
27931,3189,3386
27943,3187,3382
27955,3175,3399
27967,3156,3393
27978,3149,3392
27990,3123,3375
28002,3094,3357
28014,3064,3335
28026,3049,3300
28038,3038,3290
28049,3047,3256
28061,3039,3228
28073,3042,3187
28085,3064,3162
28097,3071,3156
28109,3065,3145
28120,3086,3146
28132,3085,3153
28144,3084,3149
28156,3078,3144
28168,3103,3147
28180,3115,3151
28191,3124,3143
28203,3133,3130
28215,3154,3124
28227,3154,3109
28239,3155,3105
28251,3151,3097
28262,3139,3097
28274,3121,3097
28286,3110,3100
28298,3099,3102
28310,3082,3115
28322,3090,3130
28333,3109,3132
28345,3133,3136
28357,3167,3141
28369,3199,3143
28381,3205,3144
28393,3200,3147
28404,3173,3147
28416,3146,3146
28428,3115,3142
28440,3068,3124
28452,3035,3122
28464,3017,3102
28476,3016,3085
28487,3026,3074
28499,3035,3054
28511,3051,3034
28523,3055,3034
28535,3063,3025
28547,3085,3030
28558,3097,3032
28570,3108,3043
28582,3137,3074
28594,3172,3119
28606,3205,3158
28618,3234,3214
28629,3266,3260
28641,3272,3307
28653,3275,3351
28665,3246,3376
28677,3215,3388
28689,3200,3399
28700,3171,3388
28712,3153,3375
28724,3129,3352
28736,3108,3358
28748,3086,3366
28760,3076,3363
28771,3081,3370
28783,3099,3366
28795,3128,3346
28807,3162,3323
28819,3166,3298
28831,3169,3283
28842,3160,3250
28854,3137,3235
28866,3115,3208
28878,3098,3201
28890,3061,3183
28902,3071,3169
28913,3068,3175
28925,3082,3151
28937,3099,3157
28949,3111,3148
28961,3139,3161
28973,3144,3156
28984,3139,3140
28996,3134,3130
29008,3140,3123
29020,3133,3117
29032,3110,3122
29044,3107,3133
29055,3112,3130
29067,3128,3142
29079,3134,3146
29091,3146,3140
29103,3157,3141
29115,3161,3144
29127,3171,3140
29138,3161,3155
29150,3151,3166
29162,3141,3143
29174,3134,3148
29186,3116,3142
29198,3117,3135
29209,3108,3099
29221,3102,3073
29233,3106,3064
29245,3113,3068
29257,3116,3075
29269,3122,3092
29280,3115,3105
29292,3121,3122
29304,3120,3130
29316,3136,3149
29328,3159,3153
29340,3181,3169
29351,3207,3190
29363,3240,3213
29375,3256,3237
29387,3266,3265
29399,3255,3297
29411,3254,3335
29422,3258,3366
29434,3251,3388
29446,3236,3408
29458,3204,3403
29470,3180,3401
29482,3165,3399
29493,3152,3395
29505,3133,3382
29517,3142,3355
29529,3147,3349
29541,3148,3341
29553,3166,3329
29564,3176,3299
29576,3188,3280
29588,3186,3265
29600,3187,3259
29612,3178,3249
29624,3160,3235
29635,3145,3213
29647,3123,3209
29659,3120,3207
29671,3108,3196
29683,3110,3196
29695,3123,3198
29706,3129,3187
29718,3147,3173
29730,3155,3181
29742,3161,3180
29754,3173,3188
29766,3179,3199
29778,3178,3194
29789,3196,3204
29801,3205,3189
29813,3210,3193
29825,3194,3181
29837,3181,3193
29849,3158,3172
29860,3146,3166
29872,3133,3163
29884,3114,3144
29896,3101,3130
29908,3103,3122
29920,3089,3104
29931,3087,3095
29943,3098,3097
29955,3129,3092
29967,3135,3081
29979,3132,3077
29991,3132,3073
