timestamp_ms,ppg1,ppg2
0,3218,3161
12,3207,3158
24,3197,3150
35,3185,3142
47,3156,3104
59,3131,3078
71,3098,3061
83,3087,3045
94,3069,3031
106,3056,3031
118,3033,3036
130,3024,3026
142,3007,3033
154,2983,3030
165,2975,3048
177,2979,3054
189,2979,3072
201,3003,3089
213,3052,3135
224,3127,3217
236,3227,3290
248,3354,3414
260,3492,3509
272,3612,3574
284,3721,3642
295,3795,3681
307,3823,3686
319,3819,3636
331,3799,3594
343,3748,3525
354,3678,3439
366,3597,3384
378,3503,3303
390,3415,3217
402,3325,3161
413,3258,3112
425,3172,3076
437,3107,3018
449,3044,3014
461,3018,2979
473,2998,3002
484,2997,3004
496,3016,3021
508,3033,3045
520,3053,3067
532,3086,3095
544,3128,3125
555,3141,3137
567,3164,3162
579,3201,3167
591,3227,3173
603,3227,3162
614,3240,3161
626,3228,3152
638,3199,3139
650,3173,3130
662,3149,3118
674,3100,3101
685,3082,3102
697,3054,3089
709,3011,3086
721,3004,3066
733,2998,3084
744,3010,3074
756,3020,3067
768,3032,3065
780,3062,3058
792,3076,3069
804,3082,3070
815,3093,3055
827,3089,3076
839,3101,3104
851,3137,3154
863,3187,3229
875,3284,3318
886,3396,3419
898,3523,3514
910,3640,3583
922,3739,3641
934,3812,3649
945,3863,3636
957,3867,3587
969,3832,3533
981,3761,3458
993,3680,3383
1005,3560,3301
1016,3448,3242
1028,3349,3188
1040,3258,3118
1052,3169,3076
1064,3103,3045
1075,3050,3030
1087,3036,3011
1099,3012,3019
1111,3002,3020
1123,3025,3030
1135,3032,3054
1146,3049,3070
1158,3078,3090
1170,3119,3117
1182,3148,3137
1194,3177,3163
1206,3198,3161
1217,3207,3170
1229,3221,3170
1241,3209,3165
1253,3189,3159
1265,3180,3149
1277,3153,3152
1288,3125,3141
1300,3098,3106
1312,3095,3095
1324,3079,3098
1336,3056,3088
1347,3055,3085
1359,3030,3074
1371,3029,3065
1383,3038,3076
1395,3037,3067
1407,3031,3059
1418,3044,3075
1430,3053,3084
1442,3064,3075
1454,3065,3066
1466,3099,3102
1478,3155,3153
1489,3228,3210
1501,3322,3304
1513,3434,3398
1525,3558,3485
1537,3660,3553
1548,3741,3597
1560,3781,3604
1572,3791,3594
1584,3761,3565
1596,3714,3508
1608,3663,3457
1619,3589,3390
1631,3504,3330
1643,3430,3257
1655,3350,3202
1667,3281,3149
1678,3228,3106
1690,3186,3062
1702,3139,3049
1714,3123,3035
1726,3115,3028
1738,3110,3030
1749,3117,3060
1761,3112,3072
1773,3117,3087
1785,3138,3115
1797,3171,3141
1809,3191,3163
1820,3204,3171
1832,3223,3170
1844,3218,3178
1856,3204,3158
1868,3193,3146
1880,3177,3133
1891,3153,3133
1903,3121,3120
1915,3110,3110
1927,3095,3113
1939,3082,3111
1950,3082,3110
1962,3072,3102
1974,3049,3113
1986,3049,3107
1998,3050,3096
2010,3061,3100
2021,3061,3104
2033,3070,3084
2045,3062,3079
2057,3058,3069
2069,3051,3067
2081,3064,3076
2092,3084,3110
2104,3132,3156
2116,3222,3215
2128,3312,3303
2140,3411,3389
2152,3517,3457
2163,3625,3509
2175,3703,3552
2187,3758,3564
2199,3781,3556
2211,3771,3532
2222,3720,3484
2234,3661,3437
2246,3577,3348
2258,3506,3302
2270,3424,3249
2282,3353,3190
2293,3298,3143
2305,3235,3099
2317,3191,3056
2329,3159,3040
2341,3122,3029
2353,3096,3029
2364,3083,3036
2376,3079,3053
2388,3085,3066
2400,3104,3096
2412,3128,3119
2424,3152,3148
2435,3155,3159
2447,3168,3174
2459,3179,3165
2471,3164,3161
2483,3146,3175
2495,3116,3149
2506,3081,3155
2518,3056,3147
2530,3038,3143
2542,3020,3146
2554,3028,3124
2565,3046,3125
2577,3033,3116
2589,3038,3106
2601,3037,3100
2613,3049,3097
2625,3046,3093
2636,3036,3084
2648,3041,3082
2660,3050,3078
2672,3060,3079
2684,3078,3084
2696,3084,3097
2707,3099,3113
2719,3102,3159
2731,3147,3218
2743,3220,3289
2755,3312,3375
2767,3411,3461
2778,3518,3513
2790,3592,3562
2802,3649,3578
2814,3692,3566
2826,3686,3538
2837,3669,3483
2849,3605,3434
2861,3553,3361
2873,3484,3286
2885,3411,3235
2897,3341,3171
2908,3267,3139
2920,3192,3094
2932,3130,3072
2944,3060,3062
2956,3025,3050
2968,3002,3053
2979,2989,3058
2991,2986,3064
3003,3001,3074
3015,3036,3086
3027,3060,3095
3039,3101,3115
3050,3131,3138
3062,3169,3140
3074,3215,3169
3086,3260,3173
3098,3297,3175
3109,3314,3170
3121,3309,3171
3133,3299,3149
3145,3289,3130
3157,3245,3103
3169,3201,3080
3180,3153,3056
3192,3097,3028
3204,3042,3013
3216,2992,3015
3228,2941,3000
3240,2925,2999
3251,2924,3022
3263,2933,3012
3275,2975,3027
3287,3009,3034
3299,3050,3049
3311,3109,3068
3322,3167,3095
3334,3241,3139
3346,3303,3178
3358,3402,3266
3370,3509,3351
3381,3625,3461
3393,3739,3541
3405,3853,3592
3417,3956,3629
3429,4027,3624
3441,4065,3606
3452,4082,3584
3464,4074,3530
3476,4040,3483
3488,4002,3423
3500,3944,3387
3512,3860,3343
3523,3748,3296
3535,3623,3253
3547,3503,3197
3559,3387,3173
3571,3304,3131
3583,3223,3125
3594,3173,3113
3606,3128,3091
3618,3109,3087
3630,3151,3100
3642,3181,3133
3653,3238,3164
3665,3295,3185
3677,3332,3218
3689,3371,3247
3701,3418,3261
3713,3452,3274
3724,3458,3270
3736,3481,3272
3748,3468,3266
3760,3451,3263
3772,3421,3256
3784,3379,3243
3795,3329,3245
3807,3293,3223
3819,3245,3217
3831,3206,3184
3843,3202,3189
3855,3197,3164
3866,3184,3145
3878,3188,3138
3890,3196,3128
3902,3204,3127
3914,3209,3121
3926,3205,3109
3937,3212,3128
3949,3221,3151
3961,3247,3205
3973,3308,3264
3985,3379,3335
3996,3473,3421
4008,3564,3496
4020,3663,3572
4032,3748,3628
4044,3807,3644
4056,3830,3626
4067,3831,3597
4079,3800,3551
4091,3729,3467
4103,3645,3385
4115,3561,3320
4127,3462,3245
4138,3389,3201
4150,3317,3151
4162,3230,3112
4174,3133,3076
4186,3032,3051
4198,2957,3058
4209,2917,3062
4221,2887,3082
4233,2905,3100
4245,2949,3140
4257,3026,3160
4268,3099,3171
4280,3172,3197
4292,3222,3205
4304,3270,3215
4316,3283,3213
4328,3299,3222
4339,3283,3211
4351,3262,3203
4363,3245,3193
4375,3223,3174
4387,3190,3178
4399,3185,3168
4410,3202,3168
4422,3189,3167
4434,3197,3173
4446,3195,3163
4458,3184,3156
4470,3169,3140
4481,3168,3145
4493,3166,3142
4505,3156,3140
4517,3169,3147
4529,3181,3154
4540,3206,3174
4552,3257,3225
4564,3318,3283
4576,3398,3355
4588,3488,3432
4600,3578,3513
4611,3678,3565
4623,3758,3596
4635,3823,3596
4647,3829,3589
4659,3804,3561
4671,3763,3513
4682,3700,3473
4694,3636,3409
4706,3560,3359
4718,3498,3309
4730,3417,3252
4742,3355,3206
4753,3290,3167
4765,3231,3140
4777,3181,3123
4789,3121,3119
4801,3113,3136
4812,3100,3155
4824,3108,3166
4836,3120,3190
4848,3144,3215
4860,3172,3241
4872,3197,3246
4883,3217,3268
4895,3233,3274
4907,3249,3276
4919,3260,3272
4931,3244,3280
4943,3221,3273
4954,3215,3254
4966,3195,3242
4978,3151,3217
4990,3128,3208
5002,3097,3181
5014,3092,3184
5025,3094,3152
5037,3077,3144
5049,3084,3139
5061,3073,3127
5073,3052,3116
5084,3038,3109
5096,3042,3124
5108,3049,3143
5120,3100,3191
5132,3172,3252
5144,3275,3352
5155,3384,3426
5167,3525,3521
5179,3653,3611
5191,3759,3686
5203,3842,3732
5215,3883,3746
5226,3899,3754
5238,3886,3715
5250,3843,3676
5262,3782,3617
5274,3690,3567
5286,3611,3504
5297,3534,3437
5309,3440,3379
5321,3355,3329
5333,3287,3298
5345,3219,3265
5357,3150,3225
5368,3110,3196
5380,3075,3182
5392,3054,3170
5404,3065,3167
5416,3089,3185
5427,3139,3205
5439,3176,3219
5451,3218,3243
5463,3233,3269
5475,3242,3293
5487,3241,3297
5498,3219,3300
5510,3186,3288
5522,3157,3286
5534,3128,3265
5546,3112,3260
5558,3084,3234
5569,3055,3205
5581,3031,3188
5593,3004,3170
5605,3002,3164
5617,2986,3134
5629,2982,3120
5640,2968,3106
5652,2969,3088
5664,2977,3077
5676,2979,3094
5688,2978,3091
5699,3009,3120
5711,3040,3172
5723,3109,3234
5735,3203,3339
5747,3326,3468
5759,3456,3610
5770,3600,3723
5782,3732,3830
5794,3828,3893
5806,3880,3918
5818,3907,3904
5830,3890,3878
5841,3850,3808
5853,3783,3731
5865,3702,3643
5877,3606,3551
5889,3513,3475
5901,3440,3414
5912,3355,3347
5924,3280,3295
5936,3206,3244
5948,3139,3200
5960,3082,3161
5971,3038,3141
5983,2997,3121
5995,2995,3123
6007,2988,3122
6019,2993,3137
6031,3013,3159
6042,3040,3158
6054,3077,3178
6066,3109,3197
6078,3137,3221
6090,3154,3221
6102,3155,3219
6113,3162,3233
6125,3152,3228
6137,3140,3209
6149,3128,3196
6161,3098,3180
6172,3078,3156
6184,3061,3155
6196,3046,3146
6208,3016,3133
6220,2992,3114
6232,2975,3109
6243,2948,3108
6255,2934,3098
6267,2905,3082
6279,2899,3073
6291,2895,3078
6303,2894,3080
6314,2921,3092
6326,2949,3114
6338,3019,3170
6350,3113,3264
6362,3245,3377
6373,3401,3520
6385,3545,3650
6397,3680,3769
6409,3777,3865
6421,3823,3911
6433,3846,3925
6444,3810,3909
6456,3752,3847
6468,3683,3755
6480,3585,3668
6492,3483,3569
6504,3392,3458
6515,3310,3379
6527,3235,3300
6539,3175,3229
6551,3120,3166
6563,3070,3124
6575,3024,3092
6586,2985,3068
6598,2950,3069
6610,2933,3090
6622,2922,3093
6634,2931,3118
6645,2949,3137
6657,2949,3172
6669,2981,3191
6681,3014,3199
6693,3017,3216
6705,3034,3237
6716,3039,3234
6728,3053,3234
6740,3046,3217
6752,3036,3205
6764,3017,3202
6776,2994,3190
6787,2977,3173
6799,2962,3155
6811,2935,3128
6823,2917,3112
6835,2908,3087
6847,2898,3083
6858,2902,3071
6870,2927,3064
6882,2936,3051
6894,2953,3058
6906,2960,3051
6918,2962,3072
6929,2953,3076
6941,2958,3094
6953,2957,3090
6965,2973,3094
6977,2985,3110
6988,2988,3114
7000,3000,3145
7012,3031,3194
7024,3096,3276
7036,3198,3396
7048,3299,3504
7059,3433,3634
7071,3557,3737
7083,3656,3815
7095,3729,3859
7107,3769,3863
7119,3779,3840
7130,3751,3797
7142,3708,3711
7154,3626,3630
7166,3545,3514
7178,3445,3418
7190,3350,3334
7201,3269,3243
7213,3191,3165
7225,3121,3111
7237,3063,3070
7249,3028,3035
7260,3009,3041
7272,2993,3029
7284,2992,3046
7296,3008,3061
7308,3023,3093
7320,3058,3119
7331,3095,3152
7343,3123,3193
7355,3127,3206
7367,3138,3215
7379,3157,3225
7391,3164,3231
7402,3179,3222
7414,3174,3224
7426,3168,3199
7438,3150,3170
7450,3134,3153
7462,3122,3140
7473,3102,3112
7485,3089,3102
7497,3072,3090
7509,3063,3083
7521,3062,3067
7532,3046,3073
7544,3044,3082
7556,3017,3066
7568,3007,3079
7580,2985,3079
7592,2992,3084
7603,2985,3079
7615,2990,3085
7627,2991,3080
7639,3006,3081
7651,3023,3086
7663,3043,3088
7674,3063,3114
7686,3091,3144
7698,3130,3199
7710,3202,3283
7722,3289,3382
7734,3399,3507
7745,3495,3616
7757,3567,3679
7769,3606,3732
7781,3632,3760
7793,3629,3717
7804,3594,3680
7816,3546,3612
7828,3472,3525
7840,3393,3428
7852,3301,3335
7864,3222,3252
7875,3125,3167
7887,3064,3102
7899,3003,3045
7911,2959,3029
7923,2936,2992
7935,2925,2980
7946,2939,2969
7958,2973,2995
7970,3008,3015
7982,3043,3036
7994,3061,3081
8005,3091,3110
8017,3111,3128
8029,3129,3156
8041,3115,3162
8053,3112,3178
8065,3092,3183
8076,3089,3172
8088,3092,3167
8100,3080,3151
8112,3084,3145
8124,3084,3123
8136,3066,3102
8147,3062,3094
8159,3052,3088
8171,3041,3077
8183,3027,3079
8195,3028,3089
8206,3023,3067
8218,3016,3057
8230,3032,3055
8242,3034,3037
8254,3017,3018
8266,3008,3019
8277,2996,3032
8289,2993,3024
8301,3012,3053
8313,3031,3080
8325,3055,3145
8337,3117,3206
8348,3219,3309
8360,3342,3413
8372,3459,3509
8384,3550,3601
8396,3615,3660
8408,3665,3693
8419,3683,3697
8431,3664,3652
8443,3620,3605
8455,3552,3532
8467,3478,3445
8479,3393,3366
8490,3289,3267
8502,3215,3183
8514,3136,3115
8526,3067,3055
8538,3018,2994
8549,2973,2980
8561,2937,2956
8573,2913,2930
8585,2915,2950
8597,2934,2981
8609,2953,3005
8620,2995,3043
8632,3040,3073
8644,3085,3102
8656,3132,3126
8668,3175,3160
8680,3193,3167
8691,3184,3173
8703,3166,3175
8715,3150,3186
8727,3129,3153
8739,3113,3146
8751,3105,3120
8762,3107,3116
8774,3095,3102
8786,3095,3086
8798,3080,3077
8810,3073,3066
8821,3053,3044
8833,3047,3039
8845,3056,3042
8857,3039,3021
8869,3028,3019
8881,2998,3020
8892,3002,3024
8904,3004,3035
8916,3038,3079
8928,3091,3117
8940,3174,3220
8952,3274,3301
8963,3384,3416
8975,3490,3516
8987,3549,3590
8999,3598,3635
9011,3606,3640
9023,3589,3621
9034,3545,3567
9046,3485,3508
9058,3408,3423
9070,3332,3344
9082,3253,3254
9093,3184,3184
9105,3106,3114
9117,3045,3053
9129,2986,3004
9141,2955,2979
9153,2928,2962
9164,2906,2964
9176,2917,2963
9188,2941,2994
9200,2975,3017
9212,3014,3025
9224,3042,3054
9235,3080,3068
9247,3121,3092
9259,3163,3115
9271,3185,3128
9283,3188,3119
9295,3171,3136
9306,3154,3136
9318,3140,3140
9330,3126,3139
9342,3127,3125
9354,3117,3125
9365,3083,3109
9377,3070,3090
9389,3054,3077
9401,3037,3062
9413,3027,3055
9425,3032,3046
9436,3037,3035
9448,3045,3040
9460,3046,3033
9472,3033,3012
9484,3023,3027
9496,3029,3035
9507,3033,3053
9519,3058,3086
9531,3103,3151
9543,3168,3215
9555,3240,3292
9567,3337,3381
9578,3453,3481
9590,3540,3538
9602,3612,3587
9614,3655,3597
9626,3658,3581
9637,3640,3537
9649,3593,3473
9661,3532,3401
9673,3463,3325
9685,3398,3230
9697,3323,3167
9708,3246,3109
9720,3174,3044
9732,3108,3006
9744,3037,2983
9756,2994,2965
9768,2974,2967
9779,2952,2969
9791,2957,2988
9803,2973,3017
9815,3012,3044
9827,3047,3077
9839,3077,3090
9850,3085,3130
9862,3120,3143
9874,3131,3162
9886,3165,3175
9898,3173,3173
9910,3165,3164
9921,3163,3146
9933,3158,3141
9945,3147,3136
9957,3137,3112
9969,3112,3106
9980,3076,3083
9992,3050,3071
