timestamp_ms,ppg1,ppg2
0,3287,3406
12,3290,3364
24,3282,3321
35,3287,3281
47,3271,3248
59,3267,3237
71,3261,3249
83,3257,3268
94,3251,3278
106,3252,3301
118,3263,3323
130,3255,3345
142,3251,3370
154,3252,3380
165,3241,3381
177,3244,3378
189,3236,3360
201,3231,3320
213,3213,3269
224,3200,3240
236,3178,3215
248,3150,3192
260,3112,3179
272,3090,3161
284,3058,3134
295,3029,3082
307,3010,3017
319,2983,2948
331,2954,2861
343,2920,2783
354,2897,2722
366,2855,2670
378,2849,2656
390,2841,2656
402,2855,2669
414,2876,2695
425,2923,2733
437,2970,2768
449,3025,2811
461,3065,2859
473,3110,2883
484,3126,2911
496,3137,2936
508,3123,2948
520,3100,2961
532,3099,2966
544,3084,2970
555,3092,2975
567,3097,3006
579,3102,3029
591,3119,3057
603,3137,3094
614,3160,3124
626,3171,3139
638,3183,3151
650,3183,3162
662,3184,3162
674,3173,3161
685,3176,3167
697,3178,3181
709,3185,3212
721,3208,3257
733,3235,3313
745,3270,3384
756,3297,3448
768,3334,3499
780,3370,3542
792,3397,3578
804,3405,3586
815,3415,3587
827,3423,3591
839,3425,3558
851,3434,3532
863,3419,3489
875,3421,3463
886,3423,3448
898,3422,3420
910,3419,3392
922,3430,3369
934,3438,3345
945,3440,3323
957,3438,3325
969,3425,3316
981,3416,3321
993,3404,3326
1005,3393,3330
1016,3380,3340
1028,3361,3346
1040,3341,3373
1052,3323,3398
1064,3298,3420
1075,3258,3439
1087,3224,3470
1099,3190,3473
1111,3132,3458
1123,3074,3431
1135,3009,3373
1146,2941,3307
1158,2905,3244
1170,2884,3205
1182,2886,3213
1194,2919,3227
1206,2942,3255
1217,2978,3270
1229,2999,3243
1241,3000,3214
1253,3013,3184
1265,3030,3156
1276,3053,3150
1288,3077,3155
1300,3098,3161
1312,3126,3167
1324,3142,3174
1336,3145,3171
1347,3139,3164
1359,3130,3165
1371,3104,3153
1383,3107,3156
1395,3097,3151
1407,3100,3145
1418,3099,3137
1430,3089,3120
1442,3089,3115
1454,3091,3098
1466,3084,3084
1477,3065,3066
1489,3071,3045
1501,3063,3022
1513,3060,2992
1525,3059,2982
1537,3063,2982
1548,3075,3004
1560,3082,3025
1572,3091,3040
1584,3102,3064
1596,3111,3110
1607,3107,3170
1619,3118,3246
1631,3125,3338
1643,3153,3434
1655,3196,3510
1667,3223,3567
1678,3249,3603
1690,3285,3613
1702,3309,3602
1714,3347,3604
1726,3387,3581
1738,3423,3547
1749,3453,3488
1761,3469,3426
1773,3486,3370
1785,3493,3346
1797,3510,3363
1808,3541,3406
1820,3575,3489
1832,3619,3582
1844,3668,3654
1856,3696,3700
1868,3734,3733
1879,3772,3752
1891,3789,3751
1903,3823,3746
1915,3827,3707
1927,3812,3667
1939,3796,3607
1950,3743,3548
1962,3693,3485
1974,3623,3405
1986,3562,3349
1998,3496,3323
2009,3466,3314
2021,3450,3316
2033,3452,3294
2045,3464,3244
2057,3468,3208
2069,3483,3184
2080,3489,3181
2092,3478,3182
2104,3465,3187
2116,3443,3183
2128,3412,3187
2139,3380,3191
2151,3336,3221
2163,3297,3268
2175,3285,3310
2187,3282,3359
2199,3275,3398
2210,3286,3414
2222,3314,3438
2234,3334,3451
2246,3360,3465
2258,3362,3458
2270,3369,3452
2281,3365,3410
2293,3328,3368
2305,3309,3342
2317,3274,3297
2329,3273,3275
2340,3266,3248
2352,3274,3257
2364,3294,3255
2376,3296,3253
2388,3309,3233
2400,3306,3197
2411,3310,3178
2423,3299,3154
2435,3304,3140
2447,3304,3149
2459,3321,3176
2471,3359,3234
2482,3391,3306
2494,3430,3373
2506,3461,3429
2518,3491,3470
2530,3528,3494
2542,3547,3500
2553,3564,3486
2565,3602,3470
2577,3640,3455
2589,3688,3441
2601,3753,3431
2612,3830,3423
2624,3940,3418
2636,4059,3418
2648,4095,3436
2660,4095,3442
2672,4095,3472
2683,4095,3496
2695,4095,3513
2707,4095,3530
2719,4095,3535
2731,4060,3551
2743,3932,3554
2754,3780,3533
2766,3656,3529
2778,3537,3546
2790,3433,3563
2802,3347,3597
2814,3282,3631
2825,3234,3650
2837,3199,3686
2849,3183,3718
2861,3180,3762
2873,3186,3821
2884,3212,3898
2896,3244,3962
2908,3284,3993
2920,3327,3996
2932,3361,3966
2944,3410,3914
2955,3438,3810
2967,3461,3688
2979,3477,3580
2991,3468,3519
3003,3470,3520
3015,3464,3549
3026,3443,3595
3038,3421,3612
3050,3393,3629
3062,3373,3604
3074,3345,3568
3086,3352,3515
3097,3362,3431
3109,3374,3323
3121,3366,3192
3133,3364,3058
3145,3357,2937
3157,3342,2831
3168,3324,2747
3180,3305,2676
3192,3273,2619
3204,3247,2557
3216,3228,2523
3227,3211,2486
3239,3211,2482
3251,3208,2491
3263,3202,2516
3275,3206,2567
3287,3216,2628
3298,3215,2691
3310,3214,2762
3322,3209,2845
3334,3200,2938
3346,3199,3031
3358,3201,3107
3369,3192,3155
3381,3183,3194
3393,3163,3195
3405,3159,3169
3417,3138,3110
3428,3111,3051
3440,3064,3012
3452,3024,2995
3464,2993,2988
3476,2975,2976
3488,2977,2966
3499,2981,2974
3511,3011,2986
3523,3048,3021
3535,3083,3063
3547,3128,3100
3559,3130,3117
3570,3134,3142
3582,3117,3140
3594,3082,3131
3606,3034,3129
3618,2982,3130
3630,2941,3133
3641,2896,3142
3653,2846,3146
3665,2817,3145
3677,2786,3128
3689,2746,3168
3701,2739,3276
3712,2740,3413
3724,2762,3544
3736,2800,3614
3748,2865,3630
3760,2916,3608
3771,2974,3539
3783,3022,3435
3795,3064,3314
3807,3106,3193
3819,3122,3077
3831,3116,2951
3842,3077,2834
3854,3032,2723
3866,3005,2615
3878,2994,2526
3890,2987,2474
3902,2975,2443
3913,2981,2446
3925,2992,2482
3937,3020,2541
3949,3025,2622
3961,3051,2712
3973,3054,2831
3984,3075,2939
3996,3094,3032
4008,3124,3128
4020,3136,3199
4032,3161,3255
4044,3204,3305
4055,3237,3347
4067,3273,3382
4079,3300,3416
4091,3306,3427
4103,3301,3427
4114,3286,3401
4126,3258,3360
4138,3231,3408
4150,3165,3670
4162,3089,4095
4174,3036,4095
4185,2948,4095
4197,2862,4095
4209,2903,4095
4221,3018,4095
4233,3222,4095
4245,3487,4095
4256,3808,4095
4268,4086,4095
4280,4095,4095
4292,4095,4095
4304,4095,4095
4315,4095,4095
4327,4095,4095
4339,4095,4095
4351,4095,4095
4363,4095,4095
4375,3994,4095
4386,3893,4095
4398,3791,4095
4410,3685,4095
4422,3568,4095
4434,3423,4095
4446,3244,4095
4457,3043,4095
4469,2798,4095
4481,2560,4095
4493,2327,4095
4505,2115,4095
4517,1959,4095
4528,1894,4095
4540,1937,4095
4552,2045,4095
4564,2196,4095
4576,2363,4095
4587,2559,3568
4599,2740,663
4611,2825,28
4623,2864,25
4635,2910,23
4647,2954,26
4658,3018,23
4670,3097,21
4682,3166,22
4694,3231,25
4706,3299,21
4717,3351,25
4729,3398,23
4741,3433,22
4753,3460,24
4765,3483,24
4776,3466,24
4788,3457,27
4800,3454,21
4812,3453,22
4824,3457,22
4835,3445,519
4847,3449,1436
4859,3421,2229
4871,3398,2879
4883,3359,3348
4895,3308,3653
4906,3272,3846
4918,3222,3935
4930,3176,3904
4942,3137,3789
4954,3078,3665
4966,3058,3602
4977,3080,3632
4989,3151,3648
5001,3232,3601
5013,3296,3462
5025,3315,3259
5037,3299,3103
5048,3299,3045
5060,3307,3074
5072,3323,3151
5084,3341,3219
5096,3330,3230
5108,3303,3210
5119,3260,3188
5131,3197,3169
5143,3140,3186
5155,3095,3236
5167,3062,3261
5179,3039,3272
5190,3021,3269
5202,3007,3236
5214,2991,3212
5226,2977,3191
5238,2980,3174
5249,2993,3159
5261,2986,3131
5273,2979,3120
5285,2984,3103
5297,2995,3085
5309,3005,3086
5320,3018,3052
5332,3023,3032
5344,3052,3008
5356,3058,2989
5368,3088,2983
5380,3116,2973
5391,3134,2994
5403,3148,3019
5415,3162,3075
5427,3184,3136
5439,3196,3199
5451,3199,3274
5462,3212,3327
5474,3242,3369
5486,3270,3391
5498,3294,3386
5510,3301,3363
5521,3327,3341
5533,3345,3301
5545,3347,3258
5557,3347,3246
5569,3328,3208
5581,3301,3197
5592,3280,3196
5604,3248,3217
5616,3219,3240
5628,3207,3272
5640,3201,3315
5652,3208,3344
5663,3217,3367
5675,3215,3380
5687,3228,3384
5699,3244,3368
5711,3248,3331
5723,3257,3281
5734,3255,3235
5746,3262,3185
5758,3258,3147
5770,3270,3122
5782,3282,3108
5794,3292,3101
5805,3287,3093
5817,3264,3095
5829,3248,3108
5841,3222,3112
5853,3221,3117
5865,3206,3120
5876,3187,3118
5888,3184,3125
5900,3173,3126
5912,3195,3153
5924,3223,3188
5935,3274,3239
5947,3324,3289
5959,3374,3324
5971,3402,3349
5983,3405,3348
5995,3404,3342
6006,3381,3316
6018,3359,3272
6030,3318,3233
6042,3286,3182
6054,3257,3139
6066,3243,3105
6077,3227,3080
6089,3207,3048
6101,3193,3032
6113,3169,3012
6125,3155,3025
6137,3141,3053
6148,3138,3087
6160,3137,3132
6172,3135,3172
6184,3141,3224
6196,3158,3264
6208,3188,3306
6219,3211,3334
6231,3229,3363
6243,3230,3380
6255,3221,3385
6267,3212,3405
6278,3202,3434
6290,3195,3468
6302,3194,3502
6314,3200,3533
6326,3220,3551
6338,3237,3547
6349,3254,3519
6361,3268,3488
6373,3260,3439
6385,3249,3397
6397,3251,3343
6409,3241,3323
6420,3240,3358
6432,3255,3503
6444,3303,3770
6456,3343,4084
6468,3380,4095
6480,3388,4095
6491,3346,4095
6503,3227,4095
6515,3046,4095
6527,2891,4095
6539,2846,4095
6551,2844,4095
6562,2861,4095
6574,2873,4095
6586,2881,4095
6598,2905,3889
6610,2939,3657
6622,2974,3489
6633,3002,3401
6645,3039,3369
6657,3053,3346
6669,3066,3332
6681,3079,3330
6692,3097,3357
6704,3104,3348
6716,3098,3262
6728,3097,3152
6740,3086,3020
6752,3075,2896
6763,3063,2764
6775,3067,2655
6787,3079,2599
6799,3111,2617
6811,3158,2679
6823,3215,2740
6834,3247,2783
6846,3274,2831
6858,3288,2865
6870,3298,2898
6882,3291,2905
6894,3287,2914
6905,3269,2893
6917,3267,2857
6929,3253,2800
6941,3239,2750
6953,3234,2742
6964,3271,2779
6976,3301,2831
6988,3330,2911
7000,3342,3020
7012,3346,3110
7024,3335,3169
7035,3328,3139
7047,3307,3052
7059,3287,3018
7071,3292,2996
7083,3306,2982
7095,3304,2932
7106,3288,2864
7118,3244,2831
7130,3236,2817
7142,3241,2822
7154,3233,2812
7166,3235,2825
7177,3253,2872
7189,3254,2925
7201,3264,2969
7213,3256,2989
7225,3261,2995
7237,3263,2993
7248,3246,2965
7260,3223,2936
7272,3209,2909
7284,3185,2865
7296,3177,2833
7307,3169,2812
7319,3177,2793
7331,3209,2815
7343,3231,2827
7355,3259,2850
7367,3285,2891
7378,3302,2940
7390,3313,2994
7402,3319,3040
7414,3305,3081
7426,3287,3095
7438,3272,3111
7449,3244,3103
7461,3200,3075
7473,3148,3055
7485,3081,3031
7497,3025,3019
7509,2978,3004
7520,2944,3012
7532,2934,3030
7544,2956,3042
7556,2989,3036
7568,3038,3053
7580,3118,3079
7591,3219,3097
7603,3305,3125
7615,3384,3148
7627,3433,3189
7639,3446,3244
7651,3452,3287
7662,3432,3314
7674,3391,3332
7686,3355,3348
7698,3316,3361
7710,3284,3374
7721,3268,3387
7733,3251,3384
7745,3256,3397
7757,3253,3400
7769,3246,3404
7781,3244,3420
7792,3257,3469
7804,3251,3569
7816,3264,3724
7828,3255,3884
7840,3229,4048
7852,3186,4095
7863,3141,4095
7875,3089,4095
7887,3032,4095
7899,3005,4095
7911,2996,4095
7923,2982,4054
7934,2963,3918
7946,2947,3754
7958,2919,3598
7970,2901,3457
7982,2893,3375
7993,2902,3343
8005,2930,3346
8017,2982,3409
8029,3042,3483
8041,3113,3569
8053,3192,3626
8064,3273,3654
8076,3367,3661
8088,3424,3647
8100,3463,3635
8112,3460,3590
8124,3431,3530
8135,3368,3437
8147,3286,3327
8159,3200,3209
8171,3123,3106
8183,3068,3027
8195,3027,2999
8206,3021,3031
8218,3033,3113
8230,3070,3187
8242,3108,3247
8254,3127,3307
8266,3107,3362
8277,3104,3411
8289,3096,3458
8301,3094,3503
8313,3099,3544
8325,3082,3578
8337,3059,3609
8348,3026,3629
8360,2993,3627
8372,2968,3609
8384,2946,3593
8396,2942,3557
8408,2957,3521
8419,2981,3482
8431,3028,3435
8443,3066,3404
8455,3118,3403
8467,3146,3405
8478,3169,3420
8490,3188,3426
8502,3195,3442
8514,3213,3452
8526,3236,3448
8538,3252,3437
8549,3258,3427
8561,3267,3406
8573,3266,3396
8585,3259,3379
8597,3241,3335
8609,3218,3300
8620,3190,3258
8632,3185,3246
8644,3172,3222
8656,3172,3212
8668,3174,3197
8680,3191,3171
8691,3211,3142
8703,3241,3128
8715,3349,3164
8727,3587,3104
8739,3824,2949
8751,3973,2761
8762,4024,2606
8774,3980,2499
8786,3865,2443
8798,3736,2445
8810,3612,2491
8821,3497,2563
8833,3406,2653
8845,3356,2754
8857,3315,2839
8869,3273,2898
8881,3248,2924
8892,3216,2913
8904,3189,2873
8916,3176,2813
8928,3170,2735
8940,3177,2655
8952,3190,2561
8963,3200,2500
8975,3193,2453
8987,3199,2430
8999,3200,2422
9011,3174,2438
9023,3157,2495
9034,3154,2582
9046,3143,2662
9058,3150,2752
9070,3154,2826
9082,3162,2894
9094,3171,2944
9105,3171,2995
9117,3182,3052
9129,3191,3104
9141,3192,3149
9153,3203,3206
9165,3216,3254
9176,3226,3289
9188,3227,3341
9200,3231,3407
9212,3244,3490
9224,3262,3593
9235,3298,3684
9247,3338,3737
9259,3373,3763
9271,3397,3740
9283,3415,3696
9295,3410,3590
9306,3372,3435
9318,3309,3301
9330,3255,3165
9342,3201,3076
9354,3164,3038
9366,3136,3014
9377,3131,3014
9389,3132,3038
9401,3125,3083
9413,3129,3170
9425,3134,3261
9437,3141,3322
9448,3154,3334
9460,3134,3343
9472,3104,3306
9484,3060,3260
9496,3010,3197
9508,2975,3129
9519,2950,3071
9531,2940,3051
9543,2968,3065
9555,2994,3092
9567,3002,3092
9579,3002,3061
9590,2992,3025
9602,2996,3009
9614,3010,3014
9626,3036,3039
9638,3086,3091
9649,3130,3158
9661,3186,3233
9673,3223,3278
9685,3238,3292
9697,3251,3291
9709,3235,3263
9720,3234,3232
9732,3206,3212
9744,3176,3192
9756,3143,3184
9768,3135,3178
9780,3136,3173
9791,3156,3154
9803,3177,3102
9815,3205,3049
9827,3233,3005
9839,3250,2957
9851,3264,2970
9862,3297,3081
9874,3396,3183
9886,3496,3233
9898,3567,3247
9910,3594,3254
9922,3577,3274
9933,3535,3296
9945,3489,3307
9957,3439,3334
9969,3390,3364
9981,3344,3411
9993,3302,3459
10004,3286,3527
10016,3299,3608
10028,3337,3680
10040,3383,3736
10052,3408,3769
10064,3416,3797
10075,3404,3798
10087,3368,3795
10099,3330,3794
10111,3265,3790
10123,3172,3805
10134,3080,3849
10146,2997,3876
10158,2924,3913
10170,2892,3920
10182,2889,3909
10194,2915,3871
10205,2936,3805
10217,2971,3725
10229,2999,3641
10241,3016,3529
10253,3041,3448
10265,3069,3380
10276,3092,3342
10288,3108,3300
10300,3140,3255
10312,3146,3211
10324,3150,3162
10336,3155,3178
10347,3190,3253
10359,3242,3268
10371,3280,3217
10383,3283,3127
10395,3258,3050
10407,3212,2982
10418,3179,2921
10430,3142,2884
10442,3135,2889
10454,3155,2917
10466,3189,2965
10478,3226,3006
10489,3251,3016
10501,3280,3020
10513,3284,3004
10525,3294,2984
10537,3288,2966
10549,3283,2937
10560,3280,2916
10572,3284,2875
10584,3300,2829
10596,3315,2773
10608,3327,2694
10620,3333,2617
10631,3334,2529
10643,3323,2464
10655,3317,2462
10667,3288,2513
10679,3285,2606
10690,3288,2692
10702,3284,2789
10714,3277,2884
10726,3281,2986
10738,3280,3079
10750,3283,3170
10761,3287,3230
10773,3300,3289
10785,3318,3349
10797,3313,3370
10809,3299,3394
10821,3300,3418
10832,3287,3422
10844,3272,3415
10856,3275,3418
10868,3271,3405
10880,3270,3394
10892,3281,3386
10903,3295,3369
10915,3285,3342
10927,3290,3328
10939,3286,3313
10951,3281,3297
10963,3258,3288
10974,3240,3271
10986,3242,3269
10998,3240,3251
11010,3233,3232
11022,3219,3225
11034,3226,3212
11045,3230,3211
11057,3242,3211
11069,3259,3222
11081,3269,3222
11093,3263,3223
11105,3250,3221
11116,3257,3218
11128,3257,3207
11140,3251,3201
11152,3246,3200
11164,3250,3188
11176,3250,3172
11187,3258,3174
11199,3249,3167
11211,3250,3157
11223,3243,3165
11235,3243,3154
11247,3229,3150
11258,3217,3152
11270,3222,3142
11282,3209,3137
11294,3206,3150
11306,3203,3140
11318,3200,3134
11329,3194,3123
11341,3189,3108
11353,3188,3102
11365,3186,3093
11377,3177,3093
11389,3179,3089
11400,3180,3091
11412,3194,3089
11424,3199,3103
11436,3202,3113
11448,3199,3115
11459,3192,3117
11471,3186,3120
11483,3169,3117
11495,3166,3109
11507,3170,3104
11519,3167,3085
11530,3167,3084
11542,3177,3088
11554,3178,3139
11566,3163,3316
11578,3142,3598
11590,3143,3936
11601,3136,4095
11613,3124,4095
11625,3131,4095
11637,3071,4095
11649,2977,4095
11661,2968,4095
11672,2989,4095
11684,3029,4095
11696,3092,4095
11708,3141,4095
11720,3208,4095
11732,3264,4095
11743,3325,4095
11755,3351,4095
11767,3362,4095
11779,3382,4095
11791,3376,4095
11803,3367,4095
11814,3339,4095
11826,3307,4095
11838,3287,4095
11850,3274,4095
11862,3262,4095
11874,3257,4095
11885,3247,4095
11897,3242,4095
11909,3252,4095
11921,3269,4095
11933,3273,4095
11944,3290,4095
11956,3319,4095
11968,3337,4095
11980,3347,4095
11992,3361,4095
12004,3358,4095
12015,3349,4095
12027,3339,4095
12039,3319,4095
12051,3300,4095
12063,3286,4095
12075,3261,4095
12086,3240,4095
12098,3212,4095
12110,3192,4095
12122,3176,4095
12134,3154,4095
12146,3155,4095
12157,3264,3770
12169,3322,2272
12181,3332,662
12193,3309,24
12205,3298,24
12217,3270,20
12228,3256,24
12240,3234,22
12252,3234,23
12264,3231,22
12276,3232,25
12287,3234,21
12299,3235,21
12311,3221,25
12323,3219,22
12335,3214,23
12346,3208,27
12358,3215,23
12370,3206,23
12382,3212,22
12394,3204,24
12406,3202,27
12417,3199,26
12429,3187,25
12441,3176,26
12453,3145,23
12465,3084,21
12476,3030,23
12488,3008,1466
12500,3029,2990
12512,3072,4095
12524,3110,4095
12536,3027,4095
12547,3024,4095
12559,3067,4095
12571,3120,4095
12583,3165,4095
12595,3217,4095
12607,3250,4095
12618,3289,4095
12630,3309,4095
12642,3316,4095
12654,3306,4095
12666,3299,4095
12678,3293,4095
12689,3290,4095
12701,3299,4095
12713,3298,4095
12725,3316,4095
12737,3316,4095
12749,3334,4095
12760,3333,4095
12772,3318,4095
12784,3312,4095
12796,3289,4095
12808,3285,4095
12820,3278,4095
12831,3269,4095
12843,3256,4095
12855,3237,4095
12867,3217,4095
12879,3197,4095
12890,3181,4095
12902,3172,4095
12914,3150,4095
12926,3131,4095
12938,3121,4095
12950,3115,4095
12961,3114,4095
12973,3243,3760
12985,3312,2278
12997,3326,635
13009,3313,30
13021,3299,24
13032,3290,21
13044,3294,22
13056,3304,27
13068,3305,27
13080,3315,24
13091,3315,24
13103,3296,22
13115,3289,21
13127,3285,21
13139,3282,24
13151,3267,26
13162,3256,26
13174,3244,26
13186,3236,24
13198,3221,22
13210,3206,26
13221,3192,24
13233,3188,24
13245,3186,23
13257,3194,23
13269,3210,25
13281,3225,851
13292,3243,1693
13304,3265,2418
13316,3291,2996
13328,3292,3426
13340,3304,3717
13351,3306,3890
13363,3307,3989
13375,3306,4065
13387,3307,4095
13399,3331,4095
13411,3342,4095
13422,3340,4095
13434,3348,4095
13446,3335,3973
13458,3313,3800
13470,3299,3604
13482,3297,3426
13493,3300,3249
13505,3314,3113
13517,3328,2994
13529,3346,2889
13541,3354,2811
13553,3379,2732
13564,3381,2659
13576,3371,2618
13588,3364,2603
13600,3349,2617
13612,3342,2648
13624,3315,2679
13635,3285,2721
13647,3255,2789
13659,3244,2903
13671,3218,2961
13683,3185,2961
13695,3155,2916
13706,3121,2892
13718,3090,2874
13730,3072,2883
13742,3079,2960
13754,3100,3062
13766,3131,3162
13777,3169,3251
13789,3186,3344
13801,3195,3419
13813,3193,3459
13825,3162,3451
13837,3141,3413
13848,3131,3343
13860,3129,3252
13872,3133,3159
13884,3146,3093
13896,3166,3017
13908,3187,2983
13919,3204,2958
13931,3219,2957
13943,3224,2949
13955,3223,2975
13967,3205,3002
13979,3182,3037
13990,3167,3064
14002,3156,3076
14014,3144,3088
14026,3136,3087
14038,3135,3078
14049,3149,3076
14061,3156,3081
14073,3171,3092
14085,3186,3134
14097,3218,3231
14109,3237,3378
14120,3258,3525
14132,3282,3652
14144,3303,3727
14156,3322,3743
14168,3321,3693
14180,3310,3592
14191,3298,3482
14203,3289,3381
14215,3290,3308
14227,3296,3239
14239,3286,3179
14251,3273,3143
14262,3281,3126
14274,3276,3154
14286,3268,3199
14298,3245,3254
14310,3232,3335
14322,3200,3421
14333,3172,3496
14345,3134,3560
14357,3111,3612
14369,3096,3603
14381,3087,3576
14393,3093,3552
14404,3101,3507
14416,3114,3493
14428,3125,3481
14440,3154,3453
14452,3180,3433
14464,3197,3414
14475,3232,3414
14487,3268,3394
14499,3300,3354
14511,3329,3310
14523,3353,3245
14535,3380,3169
14546,3386,3091
14558,3373,3018
14570,3348,2950
14582,3320,2895
14594,3305,2847
14605,3282,2812
14617,3263,2795
14629,3243,2798
14641,3236,2813
14653,3210,2864
14665,3196,2912
14676,3192,2956
14688,3186,2989
14700,3197,3019
14712,3191,3043
14724,3184,3067
14736,3195,3097
14747,3198,3119
14759,3207,3142
14771,3206,3145
14783,3207,3160
14795,3206,3155
14807,3206,3151
14818,3196,3146
14830,3189,3136
14842,3195,3134
14854,3181,3129
14866,3184,3124
14878,3181,3112
14889,3179,3109
14901,3176,3113
14913,3194,3122
14925,3206,3142
14937,3216,3153
14949,3224,3192
14960,3253,3235
14972,3261,3276
14984,3274,3313
14996,3275,3346
15008,3287,3379
15020,3298,3398
15031,3299,3419
15043,3299,3434
15055,3293,3465
15067,3280,3537
15079,3255,3645
15091,3214,3791
15102,3191,3910
15114,3195,3969
15126,3223,3959
15138,3282,3877
15150,3323,3770
15161,3372,3653
15173,3415,3542
15185,3425,3409
15197,3397,3289
15209,3367,3210
15221,3348,3156
15232,3319,3123
15244,3306,3130
15256,3296,3148
15268,3264,3217
15280,3250,3368
15292,3265,3571
15303,3291,3663
15315,3294,3652
15327,3297,3619
15339,3308,3605
15351,3297,3576
15363,3300,3514
15374,3296,3443
15386,3286,3367
15398,3266,3287
15410,3272,3205
15422,3265,3118
15434,3263,3040
15445,3254,2980
15457,3251,2940
15469,3213,2908
15481,3181,2911
15493,3134,2919
15505,3084,2954
15516,3028,2989
15528,2971,3020
15540,2937,3089
15552,2915,3149
15564,2920,3191
15576,2951,3230
15587,2981,3286
15599,3014,3343
15611,3053,3344
15623,3082,3343
15635,3112,3357
15647,3148,3376
15658,3170,3341
15670,3181,3279
15682,3170,3244
15694,3155,3245
15706,3141,3230
15717,3128,3208
15729,3139,3155
15741,3125,3068
15753,3098,3020
15765,3091,3031
15777,3117,3037
15788,3134,3004
15800,3138,2931
15812,3129,2910
15824,3120,2962
15836,3150,3078
15848,3167,3169
15859,3184,3221
15871,3204,3283
15883,3214,3397
15895,3242,3483
15907,3258,3527
15919,3289,3532
15930,3313,3523
15942,3324,3499
15954,3349,3456
15966,3361,3400
15978,3363,3324
15990,3364,3262
16001,3371,3212
16013,3376,3178
16025,3398,3175
16037,3419,3159
16049,3429,3141
16061,3430,3144
16072,3440,3172
16084,3464,3203
16096,3472,3232
16108,3470,3258
16120,3466,3270
16132,3468,3262
16143,3455,3240
16155,3444,3219
16167,3426,3216
16179,3403,3222
16191,3379,3217
16203,3361,3221
16214,3344,3219
16226,3328,3224
16238,3310,3225
16250,3295,3234
16262,3274,3233
16273,3262,3236
16285,3249,3243
16297,3236,3240
16309,3225,3239
16321,3219,3234
16333,3217,3231
16344,3217,3223
16356,3217,3216
16368,3209,3203
16380,3201,3184
16392,3194,3187
16404,3184,3176
16415,3182,3183
16427,3185,3187
16439,3204,3187
16451,3205,3193
16463,3222,3196
16475,3235,3205
16486,3235,3191
16498,3218,3196
16510,3219,3184
16522,3209,3175
16534,3214,3183
16546,3227,3190
16557,3217,3207
16569,3224,3222
16581,3239,3246
16593,3238,3270
16605,3252,3306
16617,3249,3322
16628,3248,3371
16640,3246,3403
16652,3257,3433
16664,3262,3468
16676,3281,3481
16688,3273,3496
16699,3274,3510
16711,3275,3503
16723,3286,3495
16735,3292,3493
16747,3297,3486
16759,3301,3467
16770,3305,3444
16782,3297,3428
16794,3287,3415
16806,3285,3430
16818,3292,3460
16830,3313,3512
16841,3313,3564
16853,3312,3608
16865,3305,3644
16877,3291,3643
16889,3280,3587
16901,3269,3527
16912,3269,3454
16924,3270,3380
16936,3267,3281
16948,3253,3188
16960,3235,3114
16972,3187,3050
16983,3177,3029
16995,3178,3037
17007,3189,3068
17019,3213,3114
17031,3223,3160
17043,3255,3209
17054,3261,3242
17066,3276,3289
17078,3292,3324
17090,3301,3341
17102,3301,3326
17114,3300,3283
17125,3292,3213
17137,3287,3117
17149,3284,3030
17161,3274,2972
17173,3245,2950
17185,3217,2950
17196,3189,2971
17208,3145,2983
17220,3144,2996
17232,3161,2988
17244,3187,2993
17256,3215,2998
17267,3246,3023
17279,3279,3048
17291,3322,3082
17303,3374,3102
17315,3428,3117
17327,3474,3116
17338,3492,3119
17350,3428,3152
17362,3303,3209
17374,3163,3253
17386,3045,3274
17398,2952,3277
17409,2899,3291
17421,2873,3299
17433,2888,3311
17445,2921,3325
17457,2969,3326
17468,3026,3343
17480,3091,3353
17492,3158,3374
17504,3224,3403
17516,3268,3426
17528,3304,3447
17539,3325,3468
17551,3336,3471
17563,3345,3484
17575,3347,3487
17587,3346,3492
17599,3327,3499
17610,3316,3505
17622,3295,3498
17634,3278,3490
17646,3269,3472
17658,3265,3450
17670,3263,3431
17681,3258,3408
17693,3266,3385
17705,3269,3366
17717,3273,3335
17729,3286,3321
17741,3293,3325
17752,3296,3331
17764,3308,3343
17776,3316,3357
17788,3306,3382
17800,3302,3400
17812,3306,3420
17823,3302,3434
17835,3285,3406
17847,3263,3384
17859,3253,3331
17871,3234,3271
17883,3224,3204
17894,3206,3143
17906,3194,3095
17918,3188,3067
17930,3198,3063
17942,3206,3060
17954,3203,3060
17965,3212,3086
17977,3208,3103
17989,3204,3118
18001,3210,3145
18013,3211,3159
18025,3203,3168
18036,3188,3177
18048,3197,3181
18060,3198,3181
18072,3207,3186
18084,3221,3186
18095,3214,3173
18107,3225,3161
18119,3228,3145
18131,3212,3132
18143,3209,3123
18155,3190,3098
18166,3171,3092
18178,3155,3102
18190,3141,3106
18202,3136,3107
18214,3139,3118
18226,3135,3123
18237,3148,3140
18249,3147,3132
18261,3156,3136
18273,3166,3131
18285,3177,3146
18297,3184,3163
18308,3184,3182
18320,3197,3207
18332,3191,3220
18344,3194,3258
18356,3192,3306
18368,3217,3365
18379,3227,3402
18391,3249,3446
18403,3261,3472
18415,3273,3494
18427,3291,3499
18439,3304,3495
18450,3317,3483
18462,3297,3468
18474,3310,3454
18486,3302,3441
18498,3308,3429
18510,3313,3421
18521,3314,3415
18533,3306,3393
18545,3308,3385
18557,3301,3367
18569,3298,3329
18581,3283,3286
18592,3287,3234
18604,3277,3168
18616,3267,3120
18628,3258,3074
18640,3261,3040
18652,3267,3028
18663,3262,3039
18675,3259,3077
18687,3248,3140
18699,3237,3222
18711,3230,3312
18723,3218,3395
18734,3199,3467
18746,3189,3517
18758,3187,3550
18770,3197,3540
18782,3206,3508
18794,3218,3460
18805,3240,3407
18817,3248,3363
18829,3261,3308
18841,3256,3260
18853,3265,3203
18865,3267,3177
18876,3247,3155
18888,3248,3148
18900,3236,3137
18912,3230,3140
18924,3230,3155
18936,3227,3150
18947,3220,3162
18959,3224,3166
18971,3219,3165
18983,3223,3215
18995,3256,3350
19007,3290,3524
19018,3344,3711
19030,3371,3873
19042,3395,3957
19054,3394,3972
19066,3381,3928
19078,3331,3831
19089,3288,3692
19101,3220,3523
19113,3140,3354
19125,3056,3203
19137,2960,3101
19149,2906,3044
19160,2862,3007
19172,2851,2991
19184,2851,2974
19196,2867,2969
19208,2906,2962
19220,2942,2969
19231,2992,3006
19243,3028,3049
19255,3074,3110
19267,3127,3183
19279,3190,3266
19290,3249,3351
19302,3294,3440
19314,3341,3531
19326,3390,3614
19338,3426,3654
19350,3436,3645
19361,3438,3638
19373,3429,3630
19385,3410,3615
19397,3373,3575
19409,3320,3556
19421,3275,3543
19432,3235,3558
19444,3209,3540
19456,3197,3549
19468,3201,3553
19480,3209,3532
19492,3212,3485
19503,3218,3443
19515,3207,3410
19527,3194,3365
19539,3175,3307
19551,3181,3262
19563,3168,3213
19574,3136,3176
19586,3109,3128
19598,3086,3086
19610,3073,3033
19622,3050,2988
19634,3063,2950
19645,3100,2931
19657,3134,2925
19669,3171,2921
19681,3211,2933
19693,3239,2940
19705,3286,2958
19716,3323,2979
19728,3355,3001
19740,3377,3036
19752,3394,3078
19764,3401,3120
19776,3401,3191
19787,3399,3280
19799,3412,3409
19811,3426,3540
19823,3447,3668
19835,3449,3774
19847,3453,3864
19858,3427,3913
19870,3386,3916
19882,3333,3863
19894,3273,3771
19906,3226,3646
19918,3158,3484
19929,3105,3294
19941,3036,3064
19953,2985,2855
19965,2953,2696
19977,2940,2581
19989,2953,2518
20000,2992,2532
20012,3042,2581
20024,3098,2697
20036,3176,2852
20048,3247,3021
20060,3284,3147
20071,3313,3255
20083,3314,3364
20095,3308,3432
20107,3285,3408
20119,3256,3345
20131,3230,3302
20142,3221,3288
20154,3247,3270
20166,3278,3325
20178,3333,3446
20190,3391,3531
20202,3423,3586
20213,3441,3605
20225,3438,3615
20237,3407,3623
20249,3407,3682
20261,3429,3776
20273,3466,3945
20284,3529,4095
20296,3593,4095
20308,3639,4095
20320,3666,4095
20332,3634,4095
20344,3569,4095
20355,3482,3942
20367,3379,3737
20379,3280,3508
20391,3188,3262
20403,3106,3033
20415,3044,2813
20426,3017,2637
20438,2992,2480
20450,2996,2378
20462,3005,2307
20474,3015,2294
20486,3040,2323
20497,3069,2389
20509,3107,2480
20521,3159,2593
20533,3183,2686
20545,3227,2773
20557,3248,2845
20568,3264,2908
20580,3256,2944
20592,3255,2984
20604,3256,3015
20616,3269,3045
20628,3300,3083
20639,3337,3108
20651,3372,3122
20663,3388,3124
20675,3396,3132
20687,3395,3120
20698,3381,3094
20710,3355,3069
20722,3325,3050
20734,3301,3035
20746,3276,3033
20758,3253,3017
20769,3247,2980
20781,3226,2925
20793,3215,2871
20805,3210,2858
20817,3203,2903
20829,3186,2976
20840,3186,3032
20852,3191,3060
20864,3193,3098
20876,3176,3131
20888,3159,3155
20900,3142,3165
20911,3123,3171
20923,3130,3156
20935,3120,3145
20947,3122,3129
20959,3125,3088
20971,3134,3054
20982,3136,3032
20994,3153,3024
21006,3174,3028
21018,3206,3051
21030,3237,3099
21042,3264,3168
21053,3278,3243
21065,3284,3340
21077,3286,3419
21089,3299,3497
21101,3291,3545
21113,3278,3573
21124,3271,3583
21136,3249,3556
21148,3240,3535
21160,3237,3523
21172,3234,3526
21184,3240,3537
21195,3247,3559
21207,3245,3579
21219,3237,3583
21231,3235,3559
21243,3231,3527
21255,3235,3495
21266,3252,3465
21278,3268,3437
21290,3275,3426
21302,3279,3439
21314,3288,3470
21326,3293,3501
21338,3293,3525
21349,3288,3499
21361,3267,3485
21373,3248,3454
21385,3205,3419
21397,3189,3389
21408,3172,3364
21420,3169,3343
21432,3170,3331
21444,3168,3314
21456,3163,3298
21468,3151,3270
21479,3148,3243
21491,3162,3217
21503,3165,3190
21515,3182,3164
21527,3204,3146
21539,3226,3120
21550,3258,3088
21562,3275,3059
21574,3312,3036
21586,3350,3021
21598,3378,3031
21610,3401,3055
21621,3402,3078
21633,3402,3104
21645,3396,3115
21657,3371,3107
21669,3344,3070
21681,3318,2998
21693,3289,2908
21704,3263,2835
21716,3246,2783
21728,3237,2751
21740,3238,2744
21752,3240,2760
21764,3249,2785
21775,3258,2819
21787,3265,2845
21799,3264,2877
21811,3270,2914
21823,3274,2955
21835,3282,2991
21846,3291,3016
21858,3311,3053
21870,3334,3056
21882,3390,3059
21894,3435,3042
21906,3461,3010
21917,3467,2991
21929,3463,2987
21941,3431,3000
21953,3378,3012
21965,3320,3046
21977,3272,3080
21988,3213,3116
22000,3178,3152
22012,3160,3198
22024,3162,3246
22036,3165,3283
22048,3189,3329
22059,3215,3354
22071,3259,3386
22083,3291,3416
22095,3326,3433
22107,3341,3435
22119,3329,3423
22130,3339,3406
22142,3327,3371
22154,3313,3310
22166,3308,3251
22178,3292,3189
22190,3278,3110
22201,3274,3073
22213,3264,3035
22225,3272,3031
22237,3293,3052
22249,3297,3076
22260,3315,3111
22272,3329,3151
22284,3332,3189
22296,3333,3234
22308,3323,3259
22320,3307,3276
22331,3306,3295
22343,3312,3317
22355,3317,3326
22367,3320,3324
22379,3339,3323
22391,3358,3314
22403,3370,3306
22414,3380,3288
22426,3374,3255
22438,3365,3234
22450,3374,3213
22462,3381,3199
22474,3382,3180
22485,3394,3172
22497,3401,3173
22509,3382,3164
22521,3339,3173
22533,3286,3186
22545,3214,3185
22556,3150,3180
22568,3107,3172
22580,3065,3167
22592,3034,3165
22604,2996,3165
22616,2955,3180
22627,2909,3188
22639,2864,3195
22651,2846,3197
22663,2855,3198
22675,2883,3183
22687,2937,3184
22698,3013,3188
22710,3081,3181
22722,3138,3179
22734,3201,3173
22746,3255,3162
22758,3289,3160
22769,3314,3161
22781,3328,3182
22793,3327,3210
22805,3320,3235
22817,3307,3260
22829,3274,3279
22840,3248,3294
22852,3213,3288
22864,3180,3288
22876,3175,3287
22888,3181,3302
22900,3200,3318
22911,3220,3334
22923,3243,3355
22935,3266,3365
22947,3271,3363
22959,3287,3349
22971,3305,3336
22982,3319,3330
22994,3320,3333
23006,3315,3353
23018,3304,3356
23030,3311,3344
23042,3317,3323
23053,3321,3295
23065,3323,3263
23077,3329,3219
23089,3334,3181
23101,3345,3148
23113,3362,3126
23124,3367,3105
23136,3378,3094
23148,3376,3096
23160,3382,3100
23172,3375,3097
23184,3369,3116
23195,3350,3120
23207,3320,3121
23219,3319,3142
23231,3303,3146
23243,3276,3152
23255,3260,3167
23266,3241,3174
23278,3232,3185
23290,3235,3185
23302,3240,3179
23314,3224,3175
23326,3220,3173
23337,3214,3167
23349,3199,3167
23361,3188,3164
23373,3175,3148
23385,3176,3149
23397,3186,3134
23408,3191,3125
23420,3194,3135
23432,3204,3144
23444,3215,3155
23456,3212,3151
23468,3217,3145
23479,3214,3137
23491,3203,3123
23503,3192,3121
23515,3191,3128
23527,3197,3133
23538,3202,3122
23550,3191,3128
23562,3174,3112
23574,3150,3105
23586,3125,3109
23598,3105,3108
23610,3088,3122
23621,3083,3123
23633,3099,3139
23645,3120,3154
23657,3150,3166
23669,3166,3184
23681,3185,3197
23692,3194,3213
23704,3212,3237
23716,3218,3252
23728,3216,3264
23740,3220,3273
23752,3212,3282
23763,3210,3289
23775,3189,3294
23787,3184,3305
23799,3190,3300
23811,3195,3312
23823,3193,3290
23834,3204,3292
23846,3230,3292
23858,3250,3308
23870,3280,3310
23882,3296,3313
23894,3303,3313
23905,3321,3332
23917,3324,3347
23929,3337,3387
23941,3351,3415
23953,3347,3427
23964,3334,3432
23976,3337,3439
23988,3359,3406
24000,3355,3366
24012,3362,3320
24024,3353,3262
24035,3348,3233
24047,3341,3185
24059,3339,3161
24071,3324,3149
24083,3322,3119
24095,3325,3125
24107,3312,3121
24118,3313,3129
24130,3305,3130
24142,3287,3136
24154,3281,3139
24166,3276,3143
24178,3269,3128
24189,3252,3091
24201,3238,3041
24213,3218,2989
24225,3200,2929
24237,3183,2898
24249,3169,2884
24260,3154,2876
24272,3150,2898
24284,3142,2932
24296,3128,2977
24308,3111,3034
24320,3088,3083
24331,3075,3126
24343,3065,3168
24355,3055,3202
24367,3059,3259
24379,3066,3310
24390,3084,3359
24402,3117,3417
24414,3158,3449
24426,3194,3450
24438,3225,3430
24450,3219,3390
24461,3205,3353
24473,3192,3303
24485,3194,3275
24497,3186,3243
24509,3186,3226
24521,3181,3215
24532,3190,3225
24544,3206,3238
24556,3226,3277
24568,3248,3297
24580,3275,3332
24592,3286,3355
24603,3291,3378
24615,3296,3389
24627,3310,3394
24639,3303,3396
24651,3313,3387
24663,3307,3377
24674,3310,3371
24686,3319,3364
24698,3315,3346
24710,3310,3337
24722,3299,3324
24734,3303,3329
24746,3297,3322
24757,3274,3317
24769,3259,3298
24781,3245,3262
24793,3234,3242
24805,3228,3208
24817,3232,3195
24828,3250,3187
24840,3277,3180
24852,3308,3180
24864,3327,3189
24876,3346,3184
24888,3340,3179
24899,3338,3184
24911,3340,3176
24923,3329,3164
24935,3317,3150
24947,3314,3148
24958,3306,3149
24970,3274,3136
24982,3261,3137
24994,3256,3141
25006,3256,3148
25018,3257,3147
25029,3278,3156
25041,3280,3160
25053,3272,3165
25065,3259,3157
25077,3233,3137
25089,3193,3103
25100,3157,3074
25112,3127,3051
25124,3103,3037
25136,3092,3037
25148,3079,3046
25160,3085,3068
25171,3087,3087
25183,3089,3106
25195,3092,3117
25207,3102,3132
25219,3102,3157
25231,3102,3172
25242,3091,3186
25254,3081,3197
25266,3067,3207
25278,3033,3198
25290,3018,3201
25302,3012,3207
25313,3010,3210
25325,3022,3217
25337,3032,3198
25349,3046,3170
25361,3072,3164
25373,3098,3132
25385,3127,3118
25396,3165,3074
25408,3234,3027
25420,3308,2952
25432,3359,2870
25444,3407,2768
25456,3459,2700
25467,3496,2677
25479,3542,2701
25491,3587,2767
25503,3626,2850
25515,3640,2937
25527,3635,3035
25538,3619,3127
25550,3555,3218
25562,3471,3297
25574,3381,3366
25586,3286,3436
25597,3199,3479
25609,3130,3501
25621,3073,3506
25633,3019,3526
25645,2991,3521
25657,2961,3520
25668,2965,3519
25680,2989,3496
25692,3016,3462
25704,3056,3422
25716,3109,3386
25728,3156,3340
25740,3195,3280
25751,3209,3241
25763,3207,3200
25775,3218,3187
25787,3221,3177
25799,3219,3183
25811,3203,3209
25822,3209,3239
25834,3206,3290
25846,3203,3319
25858,3219,3324
25870,3231,3330
25882,3265,3307
25893,3304,3279
25905,3337,3244
25917,3363,3208
25929,3382,3197
25941,3392,3193
25953,3383,3175
25964,3369,3162
25976,3346,3133
25988,3333,3122
26000,3305,3112
26012,3276,3102
26024,3262,3104
26035,3236,3077
26047,3216,3052
26059,3184,3013
26071,3155,2983
26083,3121,2930
26095,3106,2884
26106,3092,2825
26118,3082,2795
26130,3052,2783
26142,3053,2787
26154,3030,2798
26166,3006,2805
26177,2973,2824
26189,2948,2840
26201,2941,2850
26213,2956,2872
26225,3013,2910
26237,3077,2946
26249,3143,3003
26260,3213,3071
26272,3263,3149
26284,3296,3218
26296,3326,3272
26308,3341,3298
26320,3334,3297
26331,3323,3273
26343,3324,3232
26355,3319,3188
26367,3324,3148
26379,3330,3121
26391,3322,3091
26402,3324,3093
26414,3313,3098
26426,3311,3107
26438,3303,3124
26450,3304,3145
26462,3284,3163
26473,3264,3180
26485,3250,3204
26497,3241,3231
26509,3236,3255
26521,3230,3261
26533,3248,3254
26544,3256,3259
26556,3277,3261
26568,3284,3268
26580,3290,3274
26592,3291,3293
26604,3280,3290
26615,3272,3314
26627,3235,3348
26639,3198,3391
26651,3166,3438
26663,3137,3513
26675,3106,3602
26686,3086,3680
26698,3059,3745
26710,3061,3808
26722,3067,3846
26734,3093,3861
26746,3139,3827
26757,3197,3753
26769,3270,3665
26781,3347,3561
26793,3409,3484
26805,3456,3416
26817,3472,3357
26829,3453,3309
26840,3443,3281
26852,3404,3249
26864,3361,3247
26876,3309,3243
26888,3269,3263
26900,3236,3289
26911,3214,3329
26923,3199,3365
26935,3197,3402
26947,3167,3414
26959,3124,3423
26970,3051,3403
26982,2937,3366
26994,2824,3296
27006,2745,3222
27018,2714,3163
27030,2739,3110
27041,2809,3067
27053,2914,3050
27065,3026,3060
27077,3130,3081
27089,3194,3107
27101,3256,3143
27112,3283,3173
27124,3293,3199
27136,3292,3214
27148,3287,3216
27160,3268,3228
27172,3265,3244
27183,3245,3256
27195,3245,3261
27207,3243,3261
27219,3252,3272
27231,3260,3279
27243,3285,3268
27255,3299,3266
27266,3303,3261
27278,3304,3260
27290,3304,3250
27302,3295,3256
27314,3279,3266
27326,3275,3279
27337,3253,3303
27349,3241,3336
27361,3223,3365
27373,3219,3402
27385,3211,3450
27397,3220,3483
27408,3248,3499
27420,3256,3536
27432,3261,3551
27444,3263,3569
27456,3270,3599
27468,3276,3643
27479,3286,3709
27491,3317,3748
27503,3380,3698
27515,3410,3635
27527,3442,3578
27539,3452,3588
27550,3447,3597
27562,3450,3554
27574,3471,3451
27586,3509,3330
27598,3533,3219
27610,3503,3115
27621,3453,3001
27633,3379,2883
27645,3297,2774
27657,3233,2716
27669,3179,2702
27681,3143,2714
27692,3112,2779
27704,3116,2857
27716,3127,2956
27728,3123,3054
27740,3150,3134
27752,3158,3213
27764,3171,3296
27775,3188,3365
27787,3214,3418
27799,3252,3468
27811,3282,3507
27823,3322,3535
27835,3339,3550
27846,3338,3548
27858,3318,3543
27870,3281,3535
27882,3234,3504
27894,3192,3470
27906,3170,3444
27917,3157,3417
27929,3145,3394
27941,3151,3379
27953,3165,3376
27965,3186,3370
27977,3200,3365
27988,3218,3355
28000,3214,3350
28012,3221,3327
28024,3226,3317
28036,3234,3295
28048,3233,3303
28059,3229,3302
28071,3218,3287
28083,3226,3260
28095,3232,3254
28107,3242,3216
28119,3248,3192
28130,3246,3164
28142,3254,3140
28154,3244,3131
28166,3248,3136
28178,3245,3140
28190,3231,3146
28201,3232,3138
28213,3225,3137
28225,3222,3129
28237,3212,3135
28249,3207,3155
28261,3216,3177
28272,3212,3190
28284,3207,3204
28296,3204,3202
28308,3200,3196
28320,3205,3184
28332,3207,3184
28343,3209,3169
28355,3197,3164
28367,3194,3158
28379,3184,3140
28391,3175,3120
28403,3162,3102
28414,3165,3103
28426,3149,3089
28438,3144,3090
28450,3143,3075
28462,3135,3076
28474,3146,3083
28485,3158,3082
28497,3162,3106
28509,3152,3129
28521,3155,3168
28533,3171,3212
28545,3186,3260
28557,3207,3293
28568,3233,3320
28580,3252,3364
28592,3270,3398
28604,3279,3429
28616,3277,3458
28628,3274,3468
28639,3274,3469
28651,3272,3467
28663,3267,3467
28675,3265,3457
28687,3270,3455
28699,3280,3445
28710,3287,3431
28722,3313,3430
28734,3325,3431
28746,3333,3423
28758,3328,3410
28770,3327,3410
28781,3326,3397
28793,3309,3379
28805,3298,3357
28817,3295,3332
28829,3294,3309
28841,3304,3295
28852,3296,3281
28864,3293,3275
28876,3275,3271
28888,3276,3262
28900,3268,3256
28912,3250,3248
28923,3256,3248
28935,3246,3237
28947,3238,3227
28959,3231,3230
28971,3218,3225
28983,3215,3209
28994,3222,3207
29006,3226,3201
29018,3245,3193
29030,3244,3186
29042,3250,3191
29054,3244,3177
29065,3233,3167
29077,3221,3157
29089,3220,3152
29101,3220,3144
29113,3214,3145
29125,3206,3127
29136,3208,3134
29148,3205,3129
29160,3200,3125
29172,3197,3129
29184,3189,3125
29196,3182,3126
29207,3200,3132
29219,3207,3122
29231,3194,3127
29243,3192,3122
29255,3191,3116
29267,3188,3124
29278,3183,3118
29290,3181,3104
29302,3174,3095
29314,3168,3101
29326,3154,3117
29338,3152,3123
29349,3150,3136
29361,3148,3152
29373,3141,3164
29385,3152,3172
29397,3166,3197
29409,3173,3221
29420,3171,3244
29432,3180,3276
29444,3196,3299
29456,3203,3315
29468,3226,3342
29480,3241,3360
29492,3252,3395
29503,3256,3427
29515,3255,3454
29527,3261,3472
29539,3262,3472
29551,3271,3456
29563,3276,3432
29574,3301,3444
29586,3315,3432
29598,3356,3432
29610,3374,3423
29622,3399,3419
29634,3423,3399
29645,3434,3380
29657,3431,3366
29669,3416,3352
29681,3410,3349
29693,3401,3317
29705,3399,3294
29716,3389,3278
29728,3381,3264
29740,3376,3252
29752,3363,3227
29764,3340,3211
29776,3307,3198
29787,3286,3188
29799,3256,3183
29811,3242,3182
29823,3216,3171
29835,3207,3176
29847,3188,3173
29858,3192,3174
29870,3203,3191
29882,3232,3194
29894,3271,3204
29906,3331,3210
29918,3392,3216
29929,3446,3221
29941,3480,3219
29953,3486,3233
29965,3476,3250
29977,3430,3269
29989,3391,3282
