timestamp_ms,ppg1,ppg2
0,3123,1675
12,3129,1678
24,3127,1678
35,3136,1681
47,3129,1685
59,3129,1683
71,3139,1677
83,3125,1672
94,3139,1680
106,3128,1679
118,3141,1686
130,3142,1688
142,3147,1685
154,3124,1682
165,3125,1685
177,3109,1682
189,3111,1689
201,3155,1693
213,3159,1683
224,3143,1686
236,3149,1689
248,3101,1685
260,3116,1680
272,3159,1686
284,3119,1686
295,3128,1684
307,3131,1686
319,3121,1680
331,3116,1692
343,3112,1679
354,3103,1680
366,3112,1685
378,3106,1683
390,3118,1683
402,3104,1687
414,3091,1685
425,3097,1687
437,3103,1689
449,3095,1688
461,3113,1685
473,3120,1689
484,3127,1684
496,3125,1688
508,3127,1688
520,3128,1684
532,3124,1685
544,3088,1686
555,3069,1683
567,3106,1685
579,3138,1685
591,3166,1688
603,3185,1686
614,3181,1687
626,3204,1691
638,3190,1697
650,3165,1689
662,3179,1689
674,3165,1686
685,3191,1694
697,3189,1688
709,3204,1684
721,3123,1679
733,3135,1680
744,3150,1681
756,3104,1678
768,3168,1683
780,3133,1687
792,3100,1687
804,3129,1686
815,3112,1684
827,3100,1687
839,3120,1687
851,3119,1684
863,3142,1687
874,3161,1688
886,3179,1689
898,3158,1687
910,3154,1683
922,3145,1689
934,3116,1683
945,3125,1684
957,3112,1691
969,3121,1690
981,3123,1679
993,3141,1680
1004,3144,1688
1016,3141,1687
1028,3133,1685
1040,3178,1690
1052,3150,1690
1064,3149,1689
1075,3130,1682
1087,3144,1688
1099,3141,1687
1111,3146,1686
1123,3159,1696
1135,3154,1687
1146,3159,1690
1158,3149,1687
1170,3148,1688
1182,3139,1684
1194,3139,1685
1205,3155,1686
1217,3167,1685
1229,3151,1685
1241,3135,1689
1253,3126,1686
1265,3120,1683
1276,3122,1685
1288,3126,1690
1300,3125,1689
1312,3123,1684
1324,3135,1684
1335,3126,1689
1347,3108,1684
1359,3112,1689
1371,3121,1682
1383,3135,1689
1395,3132,1688
1406,3130,1688
1418,3139,1685
1430,3176,1688
1442,3177,1686
1454,3175,1689
1466,3142,1690
1477,3138,1690
1489,3119,1686
1501,3109,1686
1513,3085,1680
1525,3111,1683
1537,3107,1689
1548,3127,1687
1560,3112,1689
1572,3041,1682
1584,3039,1679
1596,3058,1689
1607,3034,1683
1619,3036,1683
1631,3032,1680
1643,3037,1685
1655,3028,1681
1667,3029,1681
1678,3063,1683
1690,3006,1683
1702,3037,1681
1714,3037,1686
1726,3076,1687
1738,3077,1689
1749,3085,1684
1761,3088,1687
1773,3080,1688
1785,3095,1688
1797,3081,1688
1808,3070,1685
1820,3090,1684
1832,3036,1684
1844,3091,1688
1856,3072,1689
1868,3094,1687
1879,3087,1689
1891,3081,1686
1903,3068,1686
1915,3036,1681
1927,3005,1683
1939,3012,1677
1950,3045,1680
1962,3026,1683
1974,3052,1683
1986,3031,1683
1998,3034,1686
2009,3019,1684
2021,3030,1683
2033,3012,1683
2045,3031,1686
2057,3039,1686
2069,3026,1684
2080,3040,1682
2092,3066,1686
2104,3063,1686
2116,3061,1683
2128,3061,1685
2140,3042,1685
2151,3037,1680
2163,3039,1687
2175,3071,1687
2187,3072,1687
2199,3076,1681
2210,3043,1680
2222,3057,1683
2234,3073,1682
2246,3072,1676
2258,3035,1682
2270,3036,1673
2281,3038,1681
2293,3035,1668
2305,3040,1674
2317,3064,1676
2329,3045,1677
2341,3055,1676
2352,3008,1673
2364,3010,1673
2376,3026,1674
2388,3036,1674
2400,3021,1676
2412,3026,1668
2423,3015,1667
2435,3024,1675
2447,3030,1674
2459,3041,1677
2471,3037,1674
2483,3034,1680
2494,3041,1673
2506,3027,1669
2518,3017,1672
2530,3011,1671
2542,3017,1673
2554,3015,1671
2565,3011,1675
2577,3010,1671
2589,3011,1668
2601,3020,1673
2613,3004,1673
2624,3006,1669
2636,3016,1676
2648,3015,1672
2660,3017,1669
2672,3006,1670
2684,3003,1672
2695,3011,1675
2707,3012,1673
2719,3008,1672
2731,3003,1675
2743,3012,1678
2755,3012,1676
2766,3006,1672
2778,3009,1674
2790,3006,1674
2802,3018,1674
2814,3015,1674
2826,3020,1676
2837,3041,1669
2849,3040,1676
2861,3062,1677
2873,3054,1672
2885,3047,1675
2897,3040,1674
2908,3050,1677
2920,3047,1673
2932,3051,1677
2944,3048,1671
2956,3042,1676
2968,3055,1674
2979,3050,1675
2991,3050,1673
3003,3040,1677
3015,3039,1673
3027,3043,1676
3038,3040,1676
3050,3042,1675
3062,3039,1676
3074,3057,1675
3086,3065,1679
3098,3040,1679
3109,3061,1673
3121,3043,1679
3133,3057,1674
3145,3041,1676
3157,3029,1683
3169,3027,1683
3180,3045,1677
3192,3030,1672
3204,3029,1678
3216,3040,1677
3228,3040,1675
3240,3042,1675
3251,3055,1673
3263,3050,1675
3275,3040,1674
3287,3046,1680
3299,3051,1676
3310,3062,1671
3322,3059,1678
3334,3026,1672
3346,3026,1673
3358,3030,1670
3370,3021,1673
3381,3025,1672
3393,3027,1671
3405,3016,1669
3417,3019,1676
3429,3025,1669
3441,3030,1674
3452,3017,1672
3464,3014,1673
3476,3016,1678
3488,3039,1674
3500,3057,1677
3512,3067,1676
3523,3066,1678
3535,3059,1674
3547,3047,1672
3559,3040,1674
3571,3065,1675
3583,3128,1675
3594,3110,1675
3606,3100,1679
3618,3100,1678
3630,3097,1675
3642,3114,1678
3653,3101,1671
3665,3025,1675
3677,3067,1675
3689,3060,1673
3701,3043,1675
3713,3099,1679
3724,3109,1677
3736,3103,1678
3748,3132,1682
3760,3125,1679
3772,3125,1683
3784,3088,1681
3795,3081,1682
3807,3081,1673
3819,3072,1673
3831,3087,1681
3843,3048,1677
3855,3062,1680
3866,3073,1683
3878,3094,1683
3890,3052,1681
3902,3046,1679
3914,3062,1679
3926,3074,1681
3937,3067,1675
3949,3091,1679
3961,3056,1675
3973,3100,1679
3985,3028,1672
3996,3038,1676
4008,3070,1684
4020,3121,1675
4032,3100,1673
4044,3034,1674
4056,3055,1680
4067,3064,1674
4079,3143,1677
4091,3118,1682
4103,3073,1677
4115,3124,1684
4127,3139,1677
4138,3196,1686
4150,3189,1679
4162,3212,1683
4174,3198,1682
4186,3188,1676
4198,3164,1682
4209,3173,1688
4221,3171,1682
4233,3173,1678
4245,3159,1685
4257,3166,1681
4268,3173,1684
4280,3183,1678
4292,3181,1675
4304,3181,1679
4316,3176,1680
4328,3176,1684
4339,3186,1680
4351,3172,1678
4363,3180,1681
4375,3165,1683
4387,3158,1705
4399,3163,1679
4410,3191,1684
4422,3193,1683
4434,3215,1679
4446,3209,1684
4458,3217,1677
4470,3219,1682
4481,3213,1684
4493,3210,1677
4505,3206,1683
4517,3223,1685
4529,3206,1685
4541,3210,1685
4552,3214,1680
4564,3223,1680
4576,3218,1676
4588,3211,1683
4600,3212,1679
4612,3205,1681
4623,3212,1686
4635,3218,1684
4647,3208,1679
4659,3212,1686
4671,3217,1685
4683,3212,1682
4694,3220,1680
4706,3224,1682
4718,3226,1684
4730,3234,1682
4742,3235,1685
4753,3235,1684
4765,3242,1678
4777,3244,1691
4789,3243,1684
4801,3245,1693
4813,3234,1683
4824,3225,1683
4836,3231,1687
4848,3241,1688
4860,3236,1679
4872,3234,1681
4884,3237,1680
4895,3231,1684
4907,3233,1684
4919,3244,1713
4931,3231,1681
4943,3234,1684
4955,3243,1683
4966,3222,1679
4978,3222,1682
4990,3222,1686
5002,3219,1682
5014,3239,1688
5025,3230,1680
5037,3236,1683
5049,3231,1676
5061,3220,1685
5073,3221,1686
5085,3223,1678
5096,3218,1679
5108,3223,1687
5120,3232,1683
5132,3226,1688
5144,3238,1683
5156,3238,1686
5167,3246,1683
5179,3240,1682
5191,3198,1680
5203,3151,1682
5215,3138,1681
5227,3139,1682
5238,3091,1675
5250,3186,1681
5262,3163,1679
5274,3131,1676
5286,3145,1679
5298,3162,1680
5309,3158,1681
5321,3152,1682
5333,3157,1678
5345,3165,1686
5357,3164,1680
5368,3159,1678
5380,3137,1684
5392,3131,1680
5404,3112,1675
5416,3111,1679
5428,3122,1673
5439,3075,1678
5451,3100,1676
5463,3097,1678
5475,3081,1675
5487,3114,1676
5499,3129,1679
5510,3090,1679
5522,3076,1678
5534,3073,1680
5546,3075,1672
5558,3141,1680
5570,3126,1683
5581,3128,1678
5593,3114,1681
5605,3106,1680
5617,3074,1678
5629,3081,1675
5641,3044,1672
5652,3061,1676
5664,3129,1676
5676,3123,1682
5688,3096,1678
5700,3124,1682
5711,3087,1678
5723,3081,1678
5735,3069,1679
5747,3065,1676
5759,3040,1672
5771,3064,1683
5782,3045,1671
5794,3049,1673
5806,3010,1674
5818,2985,1671
5830,3001,1677
5842,2995,1652
5853,2993,1681
5865,2964,1672
5877,2998,1677
5889,3009,1675
5901,2961,1676
5913,2959,1676
5924,2964,1677
5936,2961,1682
5948,2970,1682
5960,2948,1677
5972,2951,1681
5984,2993,1682
5995,2988,1678
6007,3002,1684
6019,2992,1683
6031,2996,1680
6043,3012,1683
6055,2985,1682
6066,3029,1681
6078,3019,1681
6090,3016,1682
6102,3018,1692
6114,3051,1679
6125,3032,1677
6137,3036,1680
6149,3041,1687
6161,3035,1683
6173,3045,1683
6185,3075,1677
6196,3075,1663
6208,3096,1687
6220,3099,1686
6232,3106,1684
6244,3102,1686
6256,3104,1685
6267,3093,1679
6279,3090,1685
6291,3108,1683
6303,3107,1685
6315,3114,1685
6327,3102,1679
6338,3105,1682
6350,3097,1673
6362,3121,1682
6374,3149,1687
6386,3154,1686
6397,3151,1685
6409,3159,1691
6421,3146,1680
6433,3131,1686
6445,3139,1683
6457,3128,1691
6468,3124,1688
6480,3111,1681
6492,3101,1688
6504,3104,1688
6516,3099,1686
6528,3109,1690
6539,3104,1686
6551,3114,1687
6563,3121,1689
6575,3125,1687
6587,3129,1693
6599,3142,1693
6610,3153,1698
6622,3156,1691
6634,3169,1691
6646,3166,1693
6658,3153,1698
6669,3152,1688
6681,3140,1706
6693,3122,1688
6705,3109,1690
6717,3063,1687
6729,3063,1692
6740,3074,1687
6752,3072,1692
6764,3078,1689
6776,3121,1689
6788,3124,1696
6800,3136,1692
6811,3135,1693
6823,3155,1690
6835,3159,1695
6847,3165,1697
6859,3167,1695
6871,3160,1690
6882,3166,1695
6894,3181,1694
6906,3138,1696
6918,3150,1696
6930,3139,1695
6942,3138,1696
6953,3149,1691
6965,3143,1695
6977,3140,1693
6989,3141,1696
7001,3140,1690
7013,3144,1691
7024,3149,1691
7036,3145,1690
7048,3140,1694
7060,3133,1692
7072,3142,1688
7083,3151,1685
7095,3148,1708
7107,3146,1694
7119,3143,1693
7131,3154,1693
7143,3157,1689
7154,3153,1692
7166,3153,1691
7178,3151,1697
7190,3150,1700
7202,3148,1697
7214,3156,1698
7225,3146,1695
7237,3141,1691
7249,3142,1694
7261,3151,1690
7273,3153,1691
7285,3143,1694
7296,3163,1696
7308,3156,1694
7320,3156,1693
7332,3150,1692
7344,3148,1692
7355,3163,1694
7367,3166,1700
7379,3167,1687
7391,3153,1696
7403,3152,1689
7415,3129,1694
7426,3126,1693
7438,3114,1692
7450,3117,1693
7462,3111,1696
7474,3115,1693
7486,3110,1694
7497,3109,1692
7509,3115,1689
7521,3108,1688
7533,3120,1708
7545,3141,1697
7557,3134,1701
7568,3140,1697
7580,3133,1695
7592,3131,1700
7604,3122,1696
7616,3124,1693
7627,3123,1700
7639,3131,1698
7651,3125,1698
7663,3116,1692
7675,3111,1703
7687,3101,1704
7698,3088,1691
7710,3065,1697
7722,3046,1693
7734,3038,1694
7746,3034,1697
7758,3027,1696
7769,3020,1697
7781,3037,1695
7793,3044,1697
7805,3056,1694
7817,3068,1696
7829,3059,1700
7840,3064,1702
7852,3049,1702
7864,3058,1700
7876,3074,1696
7888,3095,1695
7900,3087,1696
7911,3084,1698
7923,3082,1693
7935,3092,1699
7947,3086,1695
7959,3089,1704
7970,3089,1695
7982,3086,1695
7994,3073,1692
8006,3055,1694
8018,3061,1697
8030,3068,1698
8041,3059,1693
8053,3062,1698
8065,3057,1697
8077,3065,1696
8089,3058,1692
8101,3038,1693
8112,3023,1694
8124,3039,1696
8136,3037,1693
8148,3038,1690
8160,3010,1692
8172,3020,1691
8183,3033,1693
8195,3028,1697
8207,3051,1696
8219,3041,1695
8231,3037,1695
8242,3038,1691
8254,3029,1694
8266,3056,1694
8278,3040,1689
8290,3035,1690
8302,3032,1692
8313,3017,1689
8325,3026,1692
8337,3033,1690
8349,3019,1691
8361,3024,1691
8373,3025,1695
8384,3021,1694
8396,3017,1694
8408,3025,1693
8420,3012,1688
8432,3006,1687
8444,3024,1683
8455,3023,1692
8467,3008,1697
8479,3003,1691
8491,3017,1692
8503,3007,1689
8515,3016,1689
8526,3016,1694
8538,3025,1690
8550,3010,1692
8562,3024,1689
8574,3056,1684
8585,3047,1682
8597,3048,1680
8609,3047,1682
8621,3046,1684
8633,3025,1683
8645,3024,1687
8656,3064,1680
8668,3076,1684
8680,3087,1678
8692,3070,1673
8704,3124,1678
8716,3080,1678
8727,3074,1678
8739,3077,1678
8751,3068,1679
8763,3085,1680
8775,3074,1681
8787,3041,1682
8798,3003,1677
8810,2948,1670
8822,2988,1672
8834,3014,1674
8846,2972,1677
8858,3007,1682
8869,3024,1684
8881,3008,1684
8893,2993,1681
8905,2985,1682
8917,2978,1684
8929,2996,1684
8940,2970,1679
8952,2984,1679
8964,3036,1686
8976,3042,1690
8988,3049,1685
8999,3042,1688
9011,3034,1690
9023,3059,1691
9035,3036,1686
9047,3033,1689
9059,3026,1694
9070,3031,1689
9082,3039,1691
9094,3052,1699
9106,3046,1698
9118,3061,1688
9130,3054,1684
9141,3029,1688
9153,3060,1691
9165,3045,1678
9177,3028,1686
9189,3024,1680
9201,3058,1683
9212,3065,1685
9224,3055,1686
9236,3097,1691
9248,3104,1682
9260,3082,1685
9271,3094,1688
9283,3098,1682
9295,3078,1686
9307,3071,1678
9319,3055,1685
9331,3039,1682
9342,3027,1682
9354,3029,1685
9366,3035,1686
9378,3038,1686
9390,3054,1685
9402,3046,1689
9413,3052,1692
9425,3047,1691
9437,3054,1690
9449,3042,1692
9461,3054,1687
9473,2990,1678
9484,3018,1686
9496,2986,1681
9508,3023,1681
9520,3052,1685
9532,3051,1684
9544,2997,1680
9555,2979,1681
9567,2978,1682
9579,2993,1682
9591,2998,1683
9603,3034,1681
9614,3015,1681
9626,3020,1682
9638,3039,1686
9650,3027,1688
9662,3038,1683
9674,3034,1685
9685,3034,1684
9697,3011,1680
9709,2999,1682
9721,3019,1683
9733,3002,1684
9745,2988,1686
9756,2998,1684
9768,3031,1689
9780,3042,1685
9792,3033,1685
9804,3030,1683
9816,3038,1689
9827,3056,1688
9839,3039,1695
9851,3034,1688
9863,3032,1687
9875,3051,1690
9887,3051,1690
9898,3035,1690
9910,3037,1691
9922,3038,1686
9934,3031,1688
9946,3031,1688
9958,3028,1685
9969,3032,1686
9981,3034,1688
9993,3041,1687
10005,3059,1689
10017,3075,1697
10028,3071,1695
10040,3074,1688
10052,3078,1695
10064,3085,1693
10076,3085,1650
10088,3075,1691
10099,3080,1690
10111,3061,1696
10123,3060,1693
10135,3084,1700
10147,3061,1690
10159,3067,1696
10170,3067,1695
10182,3072,1692
10194,3087,1691
10206,3091,1699
10218,3104,1694
10230,3083,1697
10241,3088,1694
10253,3086,1694
10265,3098,1694
10277,3095,1699
10289,3087,1697
10301,3089,1690
10312,3088,1695
10324,3061,1690
10336,3062,1694
10348,3055,1716
10360,3043,1695
10372,3027,1688
10383,3024,1692
10395,3013,1692
10407,3013,1692
10419,3006,1692
10431,3023,1690
10443,3026,1694
10454,3026,1697
10466,3021,1689
10478,3043,1691
10490,3039,1696
10502,3029,1691
10514,3037,1692
10525,3044,1691
10537,3040,1692
10549,3036,1693
10561,3033,1695
10573,3038,1691
10585,3019,1694
10596,3021,1693
10608,3026,1691
10620,3044,1698
10632,3056,1700
10644,3070,1694
10656,3092,1694
10667,3084,1700
10679,3086,1692
10691,3089,1693
10703,3103,1696
10715,3104,1696
10727,3097,1692
10738,3095,1696
10750,3104,1693
10762,3102,1693
10774,3104,1697
10786,3109,1693
10797,3107,1696
10809,3093,1696
10821,3087,1699
10833,3096,1695
10845,3099,1694
10857,3086,1703
10868,3090,1696
10880,3074,1700
10892,3074,1696
10904,3093,1698
10916,3100,1698
10928,3098,1696
10939,3096,1698
10951,3095,1690
10963,3093,1695
10975,3090,1691
10987,3074,1694
10999,3074,1690
11010,3082,1692
11022,3076,1692
11034,3074,1697
11046,3087,1696
11058,3089,1690
11070,3078,1695
11081,3068,1696
11093,3064,1690
11105,3062,1689
11117,3059,1692
11129,3054,1695
11141,3048,1690
11152,3106,1692
11164,3099,1691
11176,3075,1701
11188,3074,1691
11200,3077,1694
11212,3074,1695
11223,3068,1694
11235,3076,1689
11247,3079,1700
11259,3090,1694
11271,3104,1695
11283,3117,1698
11294,3103,1697
11306,3113,1696
11318,3108,1692
11330,3117,1688
11342,3113,1696
11354,3117,1690
11365,3124,1700
11377,3113,1699
11389,3112,1696
11401,3121,1695
11413,3114,1671
11425,3121,1697
11436,3123,1700
11448,3111,1697
11460,3111,1694
11472,3123,1703
11484,3110,1696
11495,3107,1693
11507,3102,1693
11519,3086,1699
11531,3119,1698
11543,3105,1694
11555,3086,1696
11566,3086,1689
11578,3030,1688
11590,3018,1698
11602,3084,1696
11614,3042,1695
11626,3059,1694
11637,3097,1695
11649,3092,1694
11661,3075,1690
11673,3081,1690
11685,3054,1690
11697,3005,1688
11708,3038,1688
11720,3084,1695
11732,3018,1683
11744,3040,1693
11756,2998,1687
11768,3022,1688
11779,3015,1689
11791,3018,1696
11803,3012,1692
11815,3027,1690
11827,3044,1683
11839,3055,1689
11850,3014,1686
11862,3022,1687
11874,3023,1684
11886,3004,1679
11898,2989,1687
11910,2961,1689
11921,2976,1693
11933,2971,1690
11945,3025,1701
11957,2954,1691
11969,2988,1688
11981,2912,1686
11992,2891,1689
12004,3014,1693
12016,2968,1689
12028,3032,1696
12040,2902,1702
12051,2914,1686
12063,2949,1690
12075,2961,1692
12087,2955,1686
12099,3009,1693
12111,3018,1701
12122,2977,1687
12134,2988,1694
12146,2980,1694
12158,2964,1692
12170,2927,1691
12182,2930,1689
12193,2931,1686
12205,2934,1688
12217,2935,1686
12229,2948,1690
12241,2951,1691
12253,3019,1692
12264,2994,1688
12276,2961,1693
12288,2961,1689
12300,2982,1687
12312,2988,1688
12324,2959,1691
12335,2944,1688
12347,2952,1688
12359,2937,1688
12371,2930,1712
12383,2954,1690
12394,2952,1685
12406,2963,1693
12418,2965,1691
12430,2962,1692
12442,2977,1673
12454,2967,1695
12465,2956,1693
12477,2998,1695
12489,3019,1690
12501,3037,1696
12513,3035,1695
12525,3044,1691
12536,3031,1694
12548,3030,1697
12560,3038,1695
12572,3017,1693
12584,3027,1695
12596,3019,1692
12607,3014,1693
12619,3008,1691
12631,3035,1691
12643,3022,1691
12655,3024,1694
12667,3031,1694
12678,3016,1692
12690,3025,1693
12702,3014,1694
12714,3011,1694
12726,3020,1691
12738,3017,1694
12749,3029,1697
12761,3030,1703
12773,3035,1691
12785,3033,1692
12797,3023,1694
12809,3014,1691
12820,3020,1693
12832,3008,1688
12844,3017,1701
12856,3012,1696
12868,3025,1692
12880,3026,1691
12891,3034,1694
12903,3005,1695
12915,3001,1686
12927,3011,1693
12939,3014,1694
12951,3023,1695
12962,3016,1691
12974,3027,1697
12986,3036,1695
12998,3021,1692
13010,3031,1696
13021,3030,1698
13033,3031,1693
13045,3021,1690
13057,3029,1695
13069,3036,1694
13081,3034,1691
13092,3024,1699
13104,3037,1691
13116,3028,1692
13128,3034,1697
13140,3039,1697
13152,3043,1694
13163,3028,1693
13175,3036,1721
13187,3036,1699
13199,3035,1695
13211,3039,1696
13223,3048,1694
13234,3041,1698
13246,3038,1699
13258,3020,1694
13270,3013,1695
13282,3019,1694
13294,3019,1696
13305,3011,1696
13317,3008,1690
13329,3018,1688
13341,3012,1700
13353,3013,1693
13365,3012,1689
13376,3010,1697
13388,3014,1702
13400,3012,1693
13412,3023,1694
13424,3020,1694
13436,3021,1702
13447,3010,1690
13459,3029,1693
13471,3029,1694
13483,3024,1697
13495,3021,1695
13507,3022,1691
13518,3042,1674
13530,3041,1695
13542,3044,1694
13554,3054,1697
13566,3036,1693
13578,3041,1686
13589,3040,1696
13601,3056,1691
13613,3051,1697
13625,3033,1693
13637,3043,1696
13648,3060,1698
13660,3045,1698
13672,3033,1694
13684,3047,1692
13696,3049,1696
13708,3048,1697
13719,3030,1705
13731,3031,1699
13743,3033,1697
13755,3039,1690
13767,3033,1694
13779,3040,1696
13790,3031,1690
13802,3026,1696
13814,3013,1695
13826,3000,1692
13838,2994,1690
13850,2987,1692
13861,2991,1697
13873,2989,1692
13885,2982,1695
13897,2995,1690
13909,3000,1693
13921,2998,1690
13932,3003,1691
13944,3009,1695
13956,3019,1694
13968,3010,1693
13980,3014,1701
13992,3026,1695
14003,3018,1696
14015,3005,1694
14027,3021,1697
14039,3027,1695
14051,3021,1696
14063,3013,1694
14074,3013,1693
14086,3027,1694
14098,3017,1692
14110,3012,1692
14122,3022,1691
14134,3016,1694
14145,3025,1694
14157,3019,1693
14169,3030,1693
14181,3041,1700
14193,3040,1699
14205,3033,1693
14216,3044,1695
14228,3048,1696
14240,3028,1691
14252,3031,1695
14264,3029,1692
14276,3014,1695
14287,3023,1702
14299,3019,1696
14311,2972,1694
14323,2974,1690
14335,2992,1692
14347,2991,1694
14358,3002,1689
14370,2934,1690
14382,2997,1695
14394,2961,1690
14406,2964,1683
14418,2914,1684
14429,2947,1685
14441,2951,1686
14453,2987,1694
14465,3045,1696
14477,2988,1692
14488,2976,1695
14500,2981,1693
14512,3015,1693
14524,3004,1688
14536,2992,1687
14548,3011,1717
14559,3003,1692
14571,2987,1691
14583,3000,1694
14595,3007,1695
14607,2980,1696
14619,2966,1689
14630,2980,1693
14642,2996,1690
14654,3027,1696
14666,3032,1694
14678,3041,1694
14690,3046,1697
14701,3051,1693
14713,3048,1695
14725,3055,1694
14737,3059,1693
14749,3057,1695
14761,3072,1695
14772,3081,1695
14784,2981,1686
14796,3023,1691
14808,3041,1694
14820,2993,1690
14832,3007,1693
14843,3064,1696
14855,3066,1696
14867,2995,1696
14879,3023,1691
14891,3093,1699
14903,3100,1699
14914,3104,1698
14926,3096,1693
14938,3094,1697
14950,3109,1697
14962,3105,1698
14974,3105,1693
14985,3115,1698
14997,3081,1692
15009,2986,1694
15021,3037,1695
15033,3020,1693
15045,3037,1695
15056,3002,1690
15068,3001,1696
15080,3038,1693
15092,3033,1676
15104,3013,1693
15116,3003,1694
15127,3040,1691
15139,2975,1694
15151,3043,1698
15163,3059,1697
15175,3046,1697
15186,2971,1692
15198,2967,1687
15210,2972,1692
15222,2964,1689
15234,2991,1692
15246,2998,1691
15257,3006,1691
15269,2976,1692
15281,2979,1699
15293,2989,1690
15305,2980,1689
15317,3003,1692
15328,3009,1691
15340,3013,1690
15352,3008,1687
15364,3014,1694
15376,3018,1699
15388,3014,1690
15399,3005,1693
15411,3003,1694
15423,3013,1694
15435,3017,1692
15447,3009,1692
15459,3009,1700
15470,3005,1692
15482,2993,1697
15494,2988,1693
15506,3007,1689
15518,2982,1689
15530,2974,1692
15541,2969,1691
15553,2960,1694
15565,2967,1690
15577,2957,1687
15589,2930,1693
15601,2925,1688
15612,2974,1691
15624,2952,1691
15636,2956,1695
15648,2983,1695
15660,3010,1692
15671,3010,1693
15683,2997,1695
15695,3003,1673
15707,2992,1690
15719,2987,1688
15731,2974,1688
15742,2938,1690
15754,2983,1700
15766,2987,1695
15778,2981,1692
15790,2944,1688
15802,2946,1687
15813,2952,1685
15825,2950,1696
15837,2920,1687
15849,2925,1689
15861,2957,1689
15873,2939,1685
15884,2938,1684
15896,2951,1684
15908,2976,1685
15920,2976,1685
15932,2940,1688
15944,2942,1689
15955,2941,1691
15967,2935,1693
15979,2937,1692
15991,2914,1691
16003,2915,1684
16015,2909,1689
16026,2923,1692
16038,2950,1696
16050,2934,1692
16062,2913,1687
16074,2895,1687
16086,2923,1687
16097,2940,1692
16109,2920,1691
16121,2929,1687
16133,2923,1689
16145,2931,1688
16157,2942,1689
16168,2912,1694
16180,2921,1689
16192,2961,1692
16204,2934,1690
16216,2937,1690
16228,2939,1686
16239,2952,1688
16251,2918,1685
16263,2936,1692
16275,2924,1687
16287,2919,1691
16299,2935,1687
16310,2939,1690
16322,2911,1684
16334,2917,1686
16346,2915,1687
16358,2911,1684
16370,2930,1688
16381,2944,1681
16393,2933,1686
16405,2927,1689
16417,2914,1688
16429,2911,1689
16440,2908,1689
16452,2917,1692
16464,2920,1688
16476,2929,1690
16488,2931,1690
16500,2932,1690
16511,2931,1685
16523,2931,1690
16535,2931,1690
16547,2924,1690
16559,2916,1685
16571,2934,1693
16582,2934,1694
16594,2919,1688
16606,2918,1687
16618,2927,1690
16630,2904,1690
16642,2900,1690
16653,2915,1688
16665,2937,1686
16677,2937,1690
16689,2945,1692
16701,2942,1691
16713,2961,1694
16724,2983,1691
16736,2951,1688
16748,2955,1691
16760,2954,1692
16772,2958,1690
16784,2957,1691
16795,2959,1693
16807,2971,1693
16819,2968,1687
16831,2942,1692
16843,2947,1687
16855,2955,1688
16866,2956,1692
16878,2953,1691
16890,2961,1686
16902,2968,1688
16914,2956,1684
16926,2963,1684
16937,2966,1690
16949,2951,1685
16961,2942,1684
16973,2946,1685
16985,2949,1689
16997,2947,1688
17008,2947,1685
17020,2954,1685
17032,2950,1684
17044,2962,1685
17056,2952,1688
17068,2952,1688
17079,2952,1686
17091,2960,1688
17103,2962,1688
17115,2961,1685
17127,2977,1692
17139,2964,1684
17150,2950,1684
17162,2963,1687
17174,2928,1684
17186,2954,1693
17198,2907,1685
17210,2908,1684
17221,2961,1691
17233,2919,1686
17245,2866,1686
17257,2903,1682
17269,2890,1687
17281,2920,1688
17292,2952,1690
17304,2931,1690
17316,2911,1687
17328,2923,1688
17340,2931,1679
17351,2939,1688
17363,2946,1681
17375,2932,1687
17387,2958,1683
17399,2959,1679
17411,2899,1686
17422,2919,1688
17434,2921,1689
17446,2911,1690
17458,2910,1692
17470,2907,1688
17482,2908,1681
17493,2915,1682
17505,2906,1687
17517,2920,1685
17529,2913,1689
17541,2911,1683
17553,2911,1684
17564,2896,1684
17576,2910,1683
17588,2911,1682
17600,2911,1685
17612,2931,1684
17624,2918,1684
17635,2908,1682
17647,2913,1685
17659,2917,1685
17671,2904,1683
17683,2913,1687
17695,2899,1684
17706,2893,1687
17718,2893,1686
17730,2896,1687
17742,2902,1685
17754,2905,1690
17766,2905,1682
17777,2916,1686
17789,2901,1688
17801,2897,1686
17813,2891,1693
17825,2903,1684
17837,2896,1690
17848,2882,1688
17860,2893,1691
17872,2908,1687
17884,2927,1693
17896,2924,1689
17908,2929,1687
17919,2915,1686
17931,2912,1688
17943,2899,1689
17955,2925,1688
17967,2920,1689
17979,2896,1695
17990,2913,1689
18002,2916,1692
18014,2924,1691
18026,2938,1691
18038,2945,1692
18050,2937,1692
18061,3029,1692
18073,2930,1691
18085,2884,1689
18097,2899,1688
18109,2885,1686
18121,2915,1689
18132,2920,1686
18144,2928,1690
18156,2918,1693
18168,2945,1696
18180,2974,1689
18192,2983,1693
18203,2992,1691
18215,2988,1695
18227,3005,1694
18239,2980,1698
18251,2967,1694
18263,2959,1692
18274,2955,1691
18286,2958,1690
18298,2930,1689
18310,2902,1685
18322,2925,1691
18334,2868,1691
18345,2881,1690
18357,2873,1684
18369,2871,1687
18381,2868,1688
18393,2910,1692
18405,2869,1687
18416,2875,1689
18428,2876,1684
18440,2871,1689
18452,2867,1686
18464,2874,1688
18476,2876,1684
18487,2880,1689
18499,2889,1686
18511,2874,1686
18523,2891,1690
18535,2882,1688
18547,2888,1688
18558,2882,1687
18570,2885,1691
18582,2910,1697
18594,2929,1694
18606,2944,1692
18618,2941,1692
18629,2935,1693
18641,2922,1691
18653,2922,1691
18665,2934,1690
18677,2933,1692
18689,2937,1695
18700,2932,1686
18712,2943,1691
18724,2947,1689
18736,2941,1687
18748,2952,1694
18759,2956,1688
18771,2962,1690
18783,2945,1694
18795,2960,1691
18807,2952,1690
18819,2940,1694
18830,2925,1691
18842,2939,1696
18854,2978,1694
18866,2938,1692
18878,2941,1689
18890,2945,1692
18901,2948,1689
18913,2942,1687
18925,2931,1686
18937,2942,1689
18949,2941,1687
18961,2921,1688
18972,2918,1686
18984,2949,1693
18996,2925,1687
19008,2915,1690
19020,2957,1693
19032,2895,1690
19043,2915,1689
19055,2915,1688
19067,2933,1685
19079,2968,1666
19091,2980,1690
19103,2958,1691
19114,2934,1691
19126,2917,1687
19138,2935,1688
19150,2936,1689
19162,2925,1686
19174,2952,1690
19185,2928,1689
19197,2929,1684
19209,2947,1689
19221,2952,1686
19233,2953,1686
19245,2955,1689
19256,2942,1687
19268,2934,1696
19280,2945,1690
19292,2948,1686
19304,2946,1689
19316,2941,1691
19327,2953,1687
19339,2955,1688
19351,2959,1686
19363,2955,1674
19375,2974,1686
19387,2964,1685
19398,2953,1687
19410,2948,1685
19422,2961,1682
19434,2956,1683
19446,2966,1688
19458,2958,1682
19469,2961,1693
19481,2970,1682
19493,2955,1681
19505,2950,1685
19517,2950,1686
19528,2953,1688
19540,2954,1689
19552,2956,1687
19564,2948,1691
19576,2953,1692
19588,2949,1691
19599,2938,1684
19611,2958,1689
19623,2952,1684
19635,2949,1687
19647,2945,1685
19659,2934,1689
19670,2924,1689
19682,2934,1689
19694,2933,1689
19706,2952,1689
19718,2951,1693
19730,2937,1688
19741,2936,1692
19753,2936,1685
19765,2928,1686
19777,2926,1690
19789,2933,1688
19801,2921,1687
19812,2918,1689
19824,2925,1690
19836,2918,1689
19848,2934,1684
19860,2916,1691
19872,2914,1687
19883,2926,1685
19895,2923,1689
19907,2926,1690
19919,2917,1687
19931,2923,1688
19943,2915,1688
19955,2917,1687
19966,2913,1688
19978,2913,1688
19990,2906,1687
20002,2911,1690
20014,2917,1688
20025,2905,1691
20037,2917,1687
20049,2916,1689
20061,2919,1686
20073,2907,1684
20085,2917,1687
20096,2926,1689
20108,2917,1687
20120,2919,1687
20132,2917,1688
20144,2922,1690
20156,2923,1690
20167,2921,1695
20179,2920,1687
20191,2927,1683
20203,2925,1687
20215,2929,1686
20227,2915,1694
20238,2922,1692
20250,2912,1684
20262,2914,1688
20274,2927,1686
20286,2925,1690
20298,2925,1697
20309,2929,1690
20321,2929,1688
20333,2927,1695
20345,2915,1688
20357,2917,1696
20369,2921,1695
20380,2921,1695
20392,2920,1685
20404,2917,1695
20416,2925,1690
20428,2929,1688
20440,2929,1689
20452,2935,1691
20463,2928,1692
20475,2936,1696
20487,2929,1692
20499,2940,1689
20511,2942,1709
20523,2942,1690
20534,2952,1694
20546,2948,1695
20558,2947,1692
20570,2943,1696
20582,2949,1690
20594,2959,1695
20605,2953,1694
20617,2959,1696
20629,2949,1693
20641,2961,1698
20653,2937,1692
20665,2933,1695
20676,2948,1690
20688,2954,1696
20700,2953,1691
20712,2956,1695
20724,2967,1696
20736,2962,1697
20747,2967,1695
20759,2976,1696
20771,2961,1691
20783,2971,1694
20795,2971,1696
20807,2972,1693
20818,2989,1692
20830,3009,1696
20842,2997,1691
20854,3003,1689
20866,2999,1699
20878,2989,1697
20889,2992,1693
20901,3000,1697
20913,3011,1697
20925,3001,1694
20937,3004,1699
20949,3011,1695
20960,2999,1695
20972,3002,1698
20984,2993,1696
20996,2983,1692
21008,2974,1696
21020,2985,1698
21031,2984,1696
21043,2985,1693
21055,2977,1696
21067,2985,1696
21079,2979,1691
21091,2972,1697
21102,2963,1702
21114,2966,1691
21126,2972,1694
21138,2955,1693
21150,2964,1693
21162,2954,1696
21173,2957,1691
21185,2955,1691
21197,2955,1692
21209,2958,1694
21221,2960,1694
21233,2950,1692
21244,2957,1697
21256,2961,1696
21268,2971,1699
21280,2937,1693
21292,2956,1693
21304,2968,1692
21315,2969,1694
21327,2956,1692
21339,2956,1693
21351,2946,1693
21363,2929,1690
21375,2924,1696
21386,2934,1695
21398,2948,1691
21410,2949,1692
21422,2946,1691
21434,2948,1691
21446,2951,1701
21457,2956,1692
21469,2937,1692
21481,2953,1696
21493,2958,1693
21505,2942,1693
21517,2932,1694
21528,2938,1691
21540,2923,1692
21552,2924,1719
21564,2925,1694
21576,2938,1688
21588,2935,1690
21599,2937,1692
21611,2930,1694
21623,2949,1692
21635,2949,1693
21647,2944,1695
21659,2960,1700
21670,2968,1695
21682,2980,1697
21694,3029,1698
21706,3002,1700
21718,2978,1692
21729,2994,1698
21741,2980,1696
21753,3000,1695
21765,2980,1692
21777,2958,1694
21789,2963,1693
21801,2970,1700
21812,2954,1695
21824,2974,1690
21836,2978,1694
21848,2997,1698
21860,3008,1697
21872,2982,1699
21883,2996,1696
21895,2974,1696
21907,2978,1695
21919,2995,1695
21931,3001,1697
21943,2994,1693
21954,3000,1689
21966,2983,1695
21978,2983,1698
21990,2974,1698
22002,2990,1702
22014,2987,1695
22025,2999,1694
22037,2981,1695
22049,2978,1696
22061,2993,1700
22073,3006,1703
22085,3008,1697
22096,2996,1697
22108,2983,1696
22120,3004,1693
22132,2974,1696
22144,2962,1694
22156,2938,1696
22167,2960,1694
22179,2976,1694
22191,2953,1698
22203,2967,1695
22215,2982,1696
22227,2977,1695
22238,2969,1694
22250,2966,1695
22262,2964,1692
22274,2963,1695
22286,2964,1693
22297,2963,1699
22309,2968,1693
22321,2955,1691
22333,2958,1692
22345,2968,1700
22357,2971,1688
22369,2974,1697
22380,2977,1697
22392,2976,1691
22404,2979,1695
22416,2977,1695
22428,2977,1694
22440,2955,1695
22451,2977,1694
22463,2984,1696
22475,2974,1693
22487,2972,1695
22499,2979,1693
22511,2960,1697
22522,2970,1701
22534,2967,1693
22546,2955,1694
22558,2975,1698
22570,2959,1697
22582,2944,1693
22593,2933,1695
22605,2928,1691
22617,2920,1692
22629,2914,1694
22641,2925,1692
22653,2935,1691
22664,2931,1695
22676,2952,1696
22688,2957,1695
22700,2973,1694
22712,2963,1696
22724,2986,1694
22735,2974,1698
22747,2973,1697
22759,2968,1697
22771,2987,1695
22783,2988,1696
22795,3001,1698
22806,2987,1700
22818,2998,1699
22830,3006,1700
22842,2998,1697
22854,2978,1697
22866,2970,1693
22877,2981,1696
22889,2980,1692
22901,2984,1694
22913,2981,1694
22925,2980,1698
22937,2967,1696
22948,2990,1697
22960,3007,1695
22972,3010,1699
22984,3007,1696
22996,3024,1695
23008,3017,1698
23019,3009,1699
23031,3003,1698
23043,3002,1699
23055,2994,1697
23067,3015,1698
23079,3019,1700
23090,3012,1698
23102,3001,1695
23114,2986,1696
23126,2985,1693
23138,2988,1696
23150,2982,1702
23161,3011,1696
23173,3016,1695
23185,3014,1701
23197,3023,1698
23209,3029,1675
23221,3038,1701
23232,3039,1703
23244,3038,1699
23256,3048,1701
23268,3042,1702
23280,3032,1699
23292,3031,1699
23303,3032,1702
23315,3020,1702
23327,3031,1692
23339,3017,1698
23351,3026,1700
23363,3044,1699
23374,3038,1706
23386,3045,1702
23398,3033,1697
23410,3033,1698
23422,3037,1677
23434,3034,1712
23445,3039,1698
23457,3037,1700
23469,3042,1700
23481,3072,1703
23493,3065,1703
23505,3069,1699
23516,3049,1701
23528,3050,1704
23540,3066,1697
23552,3092,1706
23564,3070,1700
23576,3049,1700
23587,3029,1699
23599,3027,1697
23611,3044,1698
23623,3038,1692
23635,3040,1702
23647,3049,1701
23658,3045,1698
23670,3048,1700
23682,3050,1697
23694,3005,1699
23706,3011,1697
23718,3014,1697
23729,3013,1695
23741,3001,1696
23753,2998,1698
23765,3006,1697
23777,2993,1696
23789,2999,1693
23800,3017,1699
23812,3017,1693
23824,3019,1700
23836,3014,1700
23848,3045,1698
23860,3032,1700
23871,3048,1701
23883,3018,1699
23895,3034,1695
23907,3040,1700
23919,3037,1698
23931,3034,1703
23942,3035,1697
23954,3043,1701
23966,3032,1697
23978,3024,1697
23990,3014,1697
24002,3006,1699
24013,2999,1695
24025,3010,1698
24037,2985,1697
24049,2987,1697
24061,3001,1697
24073,3008,1701
24084,2990,1695
24096,3005,1698
24108,2996,1700
24120,2997,1692
24132,3002,1698
24144,3001,1697
24155,3010,1693
24167,3016,1697
24179,3029,1695
24191,3007,1697
24203,3006,1696
24215,3015,1700
24226,3004,1697
24238,3006,1700
24250,3014,1701
24262,3005,1697
24274,3008,1697
24286,3015,1674
24297,3015,1699
24309,3011,1699
24321,3014,1698
24333,3020,1697
24345,3011,1695
24357,3005,1699
24368,3011,1695
24380,3023,1700
24392,3018,1703
24404,3031,1703
24416,3023,1699
24428,3026,1699
24439,3028,1687
24451,3014,1696
24463,3011,1700
24475,3010,1696
24487,3013,1695
24499,2999,1693
24510,2997,1702
24522,3012,1698
24534,2993,1695
24546,2991,1696
24558,2983,1691
24570,2989,1695
24581,2974,1696
24593,2967,1693
24605,2940,1697
24617,2958,1696
24629,2985,1695
24641,2975,1699
24652,2975,1692
24664,2970,1693
24676,2991,1700
24688,2992,1693
24700,3009,1699
24712,3013,1698
24723,3012,1695
24735,3000,1697
24747,3001,1697
24759,3006,1696
24771,3028,1694
24783,3021,1700
24794,3028,1699
24806,3042,1700
24818,3039,1702
24830,3043,1703
24842,3043,1681
24854,3037,1699
24865,3038,1700
24877,3036,1698
24889,3028,1696
24901,3042,1701
24913,3051,1699
24925,3046,1702
24936,3049,1699
24948,3040,1696
24960,3052,1702
24972,3048,1700
24984,3036,1699
24996,3054,1699
25007,3041,1696
25019,3047,1700
25031,3040,1702
25043,3039,1696
25055,3041,1700
25067,3050,1697
25078,3036,1696
25090,3031,1704
25102,3037,1700
25114,3022,1696
25126,3035,1698
25138,3032,1696
25149,3023,1700
25161,3019,1699
25173,3017,1698
25185,3011,1698
25197,2982,1693
25209,2992,1697
25220,2980,1701
25232,2993,1698
25244,2989,1694
25256,3003,1698
25268,3023,1695
25280,3027,1699
25291,3019,1698
25303,3003,1698
25315,3029,1699
25327,3027,1703
25339,3023,1694
25351,3025,1703
25363,3032,1699
25374,3056,1700
25386,3064,1701
25398,3032,1699
25410,3060,1699
25422,3074,1700
25434,3075,1699
25445,3079,1707
25457,3071,1701
25469,3064,1700
25481,3055,1702
25493,3040,1696
25505,3057,1702
25516,3022,1700
25528,2986,1700
25540,2988,1695
25552,3009,1696
25564,3014,1699
25575,3034,1700
25587,3041,1707
25599,3022,1698
25611,3019,1696
25623,3008,1694
25635,3010,1698
25646,2970,1698
25658,2971,1698
25670,2950,1689
25682,2941,1691
25694,2951,1691
25706,2965,1691
25717,2948,1694
25729,2988,1700
25741,3026,1697
25753,3035,1697
25765,3030,1705
25777,3047,1701
25789,3048,1700
25800,3054,1704
25812,3048,1699
25824,3066,1703
25836,3057,1701
25848,3063,1707
25860,3058,1700
25871,3042,1699
25883,3053,1701
25895,3067,1698
25907,3073,1700
25919,3056,1705
25931,3045,1698
25942,3055,1701
25954,3051,1696
25966,3055,1700
25978,3031,1703
25990,3021,1699
26002,3006,1698
26013,2999,1699
26025,2987,1702
26037,3007,1694
26049,2980,1700
26061,2973,1697
26073,3033,1698
26084,3050,1697
26096,3028,1699
26108,3032,1702
26120,3001,1697
26132,3016,1700
26144,3053,1700
26155,3037,1697
26167,3077,1701
26179,3101,1701
26191,3092,1704
26203,3082,1693
26215,3097,1709
26226,3089,1702
26238,3083,1706
26250,3088,1700
26262,3046,1697
26274,3027,1699
26286,2997,1695
26297,2984,1688
26309,3000,1692
26321,3003,1697
26333,3012,1702
26345,3016,1698
26357,3008,1692
26368,3014,1699
26380,3006,1698
26392,3018,1698
26404,3060,1697
26416,3059,1698
26428,3070,1696
26439,3079,1698
26451,3083,1703
26463,3063,1700
26475,3074,1701
26487,3081,1703
26499,3063,1701
26510,3072,1699
26522,3091,1701
26534,3077,1695
26546,3065,1700
26558,3071,1701
26570,3080,1698
26581,3079,1701
26593,3094,1702
26605,3083,1701
26617,3077,1702
26629,3084,1699
26641,3072,1700
26652,3078,1699
26664,3075,1699
26676,3085,1707
26688,3079,1701
26700,3070,1698
26712,3077,1703
26723,3069,1703
26735,3074,1703
26747,3081,1699
26759,3080,1702
26771,3077,1699
26783,3083,1703
26794,3078,1698
26806,3071,1705
26818,3082,1701
26830,3078,1702
26842,3088,1704
26854,3082,1703
26865,3080,1704
26877,3090,1702
26889,3083,1703
26901,3084,1704
26913,3084,1702
26925,3079,1701
26936,3077,1702
26948,3069,1703
26960,3071,1699
26972,3069,1700
26984,3071,1691
26996,3071,1702
27007,3066,1701
27019,3071,1702
27031,3073,1700
27043,3076,1704
27055,3081,1700
27067,3066,1700
27078,3071,1676
27090,3067,1698
27102,3080,1698
27114,3084,1699
27126,3089,1698
27138,3088,1700
27149,3081,1702
27161,3083,1700
27173,3074,1702
27185,3084,1702
27197,3072,1699
27209,3070,1697
27220,3069,1697
27232,3065,1699
27244,3081,1696
27256,3071,1698
27268,3055,1699
27280,3057,1696
27291,3044,1697
27303,3046,1695
27315,3028,1701
27327,3029,1691
27339,3050,1697
27351,3031,1700
27363,3041,1697
27374,3026,1696
27386,3003,1695
27398,3002,1697
27410,3039,1697
27422,3028,1694
27434,3026,1693
27445,3023,1700
27457,3013,1697
27469,2968,1696
27481,2962,1683
27493,2956,1692
27505,2961,1693
27516,2963,1691
27528,2955,1692
27540,2963,1697
27552,2968,1692
27564,2968,1691
27576,2968,1690
27587,2969,1694
27599,2973,1691
27611,2975,1695
27623,2963,1696
27635,2972,1696
27647,2971,1692
27658,2986,1695
27670,2955,1693
27682,2955,1697
27694,2975,1698
27706,3003,1702
27718,3026,1695
27729,3048,1695
27741,3032,1698
27753,3028,1697
27765,3021,1701
27777,3018,1695
27789,3005,1701
27800,2987,1700
27812,2992,1698
27824,2992,1693
27836,2990,1693
27848,3002,1696
27860,3001,1692
27871,2994,1700
27883,2978,1694
27895,2980,1695
27907,2997,1694
27919,2997,1696
27931,3023,1703
27942,3025,1704
27954,3039,1699
27966,3032,1700
27978,3036,1704
27990,3043,1696
28002,3040,1699
28013,3044,1697
28025,3042,1697
28037,3049,1698
28049,3039,1703
28061,3058,1706
28073,3058,1707
28084,3052,1703
28096,3069,1700
28108,3062,1699
28120,3073,1705
28132,3062,1710
28144,3069,1708
28155,3061,1705
28167,3065,1702
28179,3069,1700
28191,3061,1698
28203,3071,1698
28215,3060,1704
28226,3061,1703
28238,3047,1678
28250,3039,1698
28262,3043,1697
28274,3041,1699
28286,3048,1703
28297,3050,1695
28309,3048,1696
28321,3059,1698
28333,3048,1701
28345,3049,1699
28357,3053,1697
28368,3049,1699
28380,3043,1703
28392,3043,1698
28404,3040,1698
28416,3044,1697
28428,3062,1699
28440,3059,1697
28451,3062,1701
28463,3054,1702
28475,3065,1703
28487,3054,1695
28499,3061,1700
28511,3046,1699
28522,3048,1702
28534,3041,1697
28546,3041,1695
28558,3036,1698
28570,3031,1700
28582,3033,1680
28593,3017,1698
28605,3030,1701
28617,3023,1695
28629,3005,1693
28641,3012,1697
28653,3004,1690
28664,3008,1696
28676,3016,1699
28688,3017,1696
28700,2993,1695
28712,3000,1736
28724,3003,1693
28735,3019,1692
28747,3013,1697
28759,3014,1696
28771,3013,1693
28783,3006,1695
28795,3009,1698
28806,3010,1696
28818,3019,1695
28830,3022,1697
28842,3009,1695
28854,3075,1700
28866,3105,1698
28877,3069,1697
28889,3068,1695
28901,3051,1698
28913,3086,1701
28925,3038,1694
28937,3020,1689
28948,3059,1691
28960,3062,1695
28972,3049,1691
28984,3069,1689
28996,3067,1688
29008,3062,1686
29020,3066,1687
29031,3065,1686
29043,3044,1690
29055,3052,1696
29067,3046,1698
29079,3046,1693
29091,3046,1698
29102,3049,1697
29114,3062,1696
29126,3062,1694
29138,3094,1683
29150,3087,1688
29162,3083,1693
29173,3104,1685
29185,3112,1679
29197,3077,1691
29209,3062,1691
29221,3108,1690
29233,3083,1683
29244,3081,1689
29256,3092,1686
29268,3089,1690
29280,3106,1696
29292,3086,1685
29304,3097,1687
29315,3100,1689
29327,3093,1685
29339,3085,1689
29351,3099,1690
29363,3062,1690
29375,3069,1690
29386,3104,1691
29398,3071,1697
29410,3052,1690
29422,3063,1692
29434,3066,1689
29446,3051,1692
29457,3036,1691
29469,3052,1691
29481,3028,1691
29493,3060,1691
29505,3022,1691
29517,3055,1692
29528,3041,1695
29540,2987,1688
29552,2971,1690
29564,2966,1688
29576,2971,1696
29588,3010,1697
29599,3029,1693
29611,3020,1695
29623,3022,1692
29635,3013,1690
29647,3029,1693
29659,3032,1691
29670,3064,1697
29682,3047,1692
29694,2997,1685
29706,3022,1689
29718,3019,1689
29730,3011,1685
29741,2982,1692
29753,2997,1689
29765,3004,1690
29777,3001,1691
29789,3002,1692
29801,3016,1689
29812,3010,1691
29824,3010,1691
29836,2991,1689
29848,3001,1693
29860,2999,1690
29872,3028,1698
29883,3013,1695
29895,3025,1691
29907,3028,1693
29919,3028,1694
29931,3029,1690
29943,3003,1694
29954,2992,1692
29966,2997,1693
29978,3018,1690
29990,2976,1688
