timestamp_ms,ppg1,ppg2
0,3186,1686
12,3198,1689
24,3203,1684
36,3195,1682
47,3195,1676
59,3204,1687
71,3203,1676
83,3200,1686
95,3203,1682
106,3199,1689
118,3196,1685
130,3194,1684
142,3200,1688
154,3202,1687
165,3199,1687
177,3202,1691
189,3192,1706
201,3197,1690
213,3198,1688
225,3198,1690
236,3198,1673
248,3194,1685
260,3208,1693
272,3206,1698
284,3209,1689
296,3207,1685
307,3206,1686
319,3208,1685
331,3206,1687
343,3206,1687
355,3198,1683
366,3201,1685
378,3201,1688
390,3200,1690
402,3204,1688
414,3206,1686
426,3205,1683
437,3206,1690
449,3204,1687
461,3203,1686
473,3200,1687
485,3204,1689
496,3207,1694
508,3201,1689
520,3200,1690
532,3203,1690
544,3202,1689
556,3198,1686
567,3201,1697
579,3203,1687
591,3203,1692
603,3204,1683
615,3205,1684
626,3204,1682
638,3211,1686
650,3212,1687
662,3211,1688
674,3214,1686
686,3210,1689
697,3197,1709
709,3192,1687
721,3202,1687
733,3201,1684
745,3194,1689
756,3205,1686
768,3210,1689
780,3206,1691
792,3211,1688
804,3206,1687
816,3206,1687
827,3201,1683
839,3203,1687
851,3197,1691
863,3193,1686
875,3199,1688
886,3202,1696
898,3211,1683
910,3204,1683
922,3209,1692
934,3211,1684
946,3205,1685
957,3199,1686
969,3199,1694
981,3200,1682
993,3201,1689
1005,3196,1683
1017,3186,1679
1028,3205,1686
1040,3205,1687
1052,3205,1683
1064,3202,1685
1076,3200,1689
1088,3204,1685
1099,3198,1693
1111,3198,1684
1123,3209,1691
1135,3212,1685
1147,3212,1693
1158,3196,1690
1170,3198,1689
1182,3205,1691
1194,3201,1685
1206,3201,1689
1218,3201,1690
1229,3207,1689
1241,3211,1679
1253,3204,1688
1265,3206,1687
1277,3202,1689
1288,3198,1689
1300,3192,1685
1312,3195,1687
1324,3203,1686
1336,3202,1688
1348,3203,1689
1359,3202,1701
1371,3202,1688
1383,3206,1690
1395,3197,1684
1407,3205,1682
1419,3204,1690
1430,3211,1690
1442,3210,1686
1454,3209,1686
1466,3208,1677
1478,3200,1684
1489,3198,1693
1501,3204,1681
1513,3203,1691
1525,3204,1686
1537,3208,1693
1549,3211,1692
1560,3210,1687
1572,3209,1683
1584,3209,1685
1596,3198,1689
1608,3202,1687
1619,3201,1684
1631,3204,1683
1643,3209,1690
1655,3210,1691
1667,3209,1689
1679,3211,1690
1690,3214,1688
1702,3203,1687
1714,3205,1689
1726,3203,1678
1738,3201,1688
1750,3207,1689
1761,3211,1689
1773,3210,1686
1785,3212,1687
1797,3217,1691
1809,3211,1690
1820,3210,1684
1832,3209,1692
1844,3201,1688
1856,3191,1687
1868,3196,1687
1880,3196,1696
1891,3203,1693
1903,3204,1685
1915,3207,1688
1927,3208,1686
1939,3189,1687
1951,3198,1692
1962,3198,1686
1974,3205,1688
1986,3208,1687
1998,3206,1689
2010,3204,1687
2021,3212,1685
2033,3206,1687
2045,3204,1692
2057,3194,1692
2069,3200,1688
2081,3200,1683
2092,3208,1686
2104,3205,1689
2116,3209,1687
2128,3193,1685
2140,3195,1687
2151,3196,1686
2163,3202,1668
2175,3203,1687
2187,3205,1688
2199,3202,1687
2211,3208,1685
2222,3202,1686
2234,3210,1680
2246,3206,1689
2258,3203,1690
2270,3200,1687
2282,3205,1689
2293,3202,1686
2305,3207,1683
2317,3206,1698
2329,3199,1691
2341,3200,1690
2353,3196,1688
2364,3202,1685
2376,3200,1687
2388,3200,1689
2400,3214,1696
2412,3202,1692
2423,3201,1686
2435,3199,1685
2447,3204,1689
2459,3206,1689
2471,3198,1686
2483,3200,1695
2494,3198,1685
2506,3203,1687
2518,3207,1690
2530,3201,1687
2542,3200,1687
2554,3202,1685
2565,3201,1687
2577,3197,1689
2589,3200,1684
2601,3205,1695
2613,3208,1693
2625,3209,1689
2636,3199,1685
2648,3201,1686
2660,3202,1689
2672,3207,1689
2684,3200,1697
2695,3211,1684
2707,3208,1691
2719,3205,1689
2731,3195,1691
2743,3205,1682
2755,3217,1740
2766,3207,1691
2778,3196,1688
2790,3199,1687
2802,3206,1686
2814,3195,1687
2826,3195,1690
2837,3202,1691
2849,3205,1688
2861,3210,1689
2873,3201,1684
2885,3197,1691
2897,3208,1693
2908,3201,1691
2920,3203,1684
2932,3204,1688
2944,3196,1689
2956,3205,1689
2967,3203,1691
2979,3204,1685
2991,3205,1690
3003,3193,1690
3015,3197,1687
3027,3205,1692
3038,3206,1687
3050,3202,1686
3062,3207,1688
3074,3199,1687
3086,3194,1694
3098,3207,1689
3109,3209,1692
3121,3205,1685
3133,3199,1684
3145,3207,1695
3157,3210,1685
3169,3202,1686
3180,3205,1692
3192,3203,1689
3204,3211,1688
3216,3197,1686
3228,3203,1692
3240,3200,1693
3251,3201,1687
3263,3203,1689
3275,3205,1687
3287,3206,1684
3299,3209,1681
3311,3201,1684
3322,3199,1688
3334,3207,1688
3346,3203,1684
3358,3203,1693
3370,3201,1690
3381,3202,1680
3393,3207,1686
3405,3208,1687
3417,3211,1688
3429,3212,1688
3441,3198,1682
3452,3201,1693
3464,3202,1688
3476,3201,1707
3488,3199,1685
3500,3194,1682
3512,3202,1690
3523,3208,1683
3535,3197,1688
3547,3195,1683
3559,3200,1686
3571,3199,1687
3583,3202,1687
3594,3206,1690
3606,3198,1683
3618,3193,1684
3630,3194,1685
3642,3192,1685
3653,3194,1687
3665,3205,1689
3677,3202,1690
3689,3196,1690
3701,3198,1689
3713,3199,1686
3724,3204,1685
3736,3199,1687
3748,3195,1695
3760,3194,1687
3772,3196,1692
3784,3196,1690
3795,3198,1687
3807,3194,1690
3819,3202,1691
3831,3192,1686
3843,3202,1681
3855,3198,1688
3866,3199,1693
3878,3202,1682
3890,3207,1682
3902,3194,1691
3914,3196,1695
3925,3195,1685
3937,3193,1689
3949,3197,1677
3961,3201,1690
3973,3194,1687
3985,3190,1688
3996,3193,1690
4008,3200,1694
4020,3191,1691
4032,3197,1688
4044,3194,1688
4056,3198,1688
4067,3206,1691
4079,3206,1685
4091,3194,1678
4103,3196,1679
4115,3195,1686
4126,3202,1691
4138,3202,1686
4150,3189,1685
4162,3189,1686
4174,3197,1646
4186,3187,1687
4197,3197,1684
4209,3199,1685
4221,3199,1684
4233,3199,1684
4245,3204,1682
4257,3193,1652
4268,3188,1688
4280,3199,1687
4292,3204,1684
4304,3206,1686
4316,3203,1690
4328,3188,1686
4339,3192,1683
4351,3197,1687
4363,3197,1691
4375,3201,1685
4387,3198,1718
4399,3188,1686
4410,3194,1683
4422,3198,1692
4434,3200,1707
4446,3197,1688
4458,3200,1686
4470,3196,1686
4481,3203,1692
4493,3194,1685
4505,3184,1687
4517,3186,1686
4529,3188,1681
4540,3197,1697
4552,3195,1683
4564,3181,1684
4576,3195,1681
4588,3188,1681
4600,3196,1710
4611,3190,1680
4623,3179,1707
4635,3186,1686
4647,3184,1687
4659,3191,1687
4671,3185,1684
4682,3187,1687
4694,3195,1676
4706,3192,1685
4718,3191,1676
4730,3194,1686
4741,3193,1686
4753,3193,1674
4765,3190,1688
4777,3204,1688
4789,3191,1694
4801,3185,1689
4812,3184,1691
4824,3185,1694
4836,3191,1690
4848,3194,1690
4860,3192,1687
4872,3189,1685
4883,3186,1687
4895,3188,1683
4907,3186,1689
4919,3187,1682
4931,3192,1683
4943,3202,1682
4954,3196,1689
4966,3199,1686
4978,3188,1687
4990,3186,1678
5002,3189,1679
5013,3186,1692
5025,3193,1686
5037,3192,1692
5049,3186,1684
5061,3195,1689
5073,3192,1687
5084,3185,1686
5096,3187,1680
5108,3184,1688
5120,3192,1689
5132,3196,1690
5143,3203,1690
5155,3194,1690
5167,3195,1689
5179,3196,1688
5191,3198,1689
5203,3198,1690
5214,3192,1662
5226,3195,1696
5238,3195,1683
5250,3178,1688
5262,3197,1689
5274,3191,1685
5285,3194,1683
5297,3193,1685
5309,3181,1688
5321,3189,1689
5333,3192,1687
5345,3194,1681
5356,3188,1687
5368,3194,1689
5380,3196,1685
5392,3186,1689
5404,3186,1691
5416,3191,1686
5427,3192,1645
5439,3193,1689
5451,3195,1686
5463,3190,1683
5475,3198,1687
5486,3180,1688
5498,3185,1686
5510,3188,1677
5522,3190,1692
5534,3189,1687
5546,3201,1683
5557,3194,1687
5569,3195,1688
5581,3186,1683
5593,3194,1685
5605,3193,1707
5617,3184,1685
5628,3193,1687
5640,3186,1690
5652,3188,1685
5664,3183,1686
5676,3183,1676
5688,3189,1687
5699,3190,1687
5711,3180,1683
5723,3186,1687
5735,3174,1685
5747,3181,1688
5758,3168,1698
5770,3175,1686
5782,3176,1698
5794,3181,1688
5806,3181,1694
5818,3183,1689
5829,3176,1695
5841,3178,1683
5853,3187,1680
5865,3182,1688
5877,3182,1689
5889,3189,1664
5900,3186,1688
5912,3181,1678
5924,3176,1687
5936,3183,1664
5948,3177,1687
5959,3178,1686
5971,3181,1686
5983,3184,1681
5995,3184,1685
6007,3187,1679
6019,3187,1681
6030,3174,1686
6042,3185,1680
6054,3176,1687
6066,3185,1687
6078,3183,1686
6090,3186,1693
6101,3186,1683
6113,3191,1686
6125,3199,1688
6137,3190,1695
6149,3187,1684
6161,3179,1683
6172,3187,1689
6184,3195,1693
6196,3183,1687
6208,3185,1686
6220,3187,1686
6231,3189,1687
6243,3184,1693
6255,3182,1686
6267,3184,1685
6279,3184,1682
6291,3193,1684
6302,3195,1680
6314,3185,1679
6326,3189,1688
6338,3189,1684
6350,3186,1682
6362,3187,1656
6373,3197,1691
6385,3196,1678
6397,3196,1686
6409,3190,1689
6421,3184,1690
6432,3183,1691
6444,3183,1683
6456,3179,1684
6468,3186,1686
6480,3179,1683
6492,3182,1682
6503,3174,1655
6515,3175,1710
6527,3180,1688
6539,3180,1682
6551,3180,1687
6563,3178,1685
6574,3180,1686
6586,3176,1691
6598,3169,1690
6610,3171,1684
6622,3169,1687
6634,3176,1684
6645,3178,1681
6657,3178,1688
6669,3184,1683
6681,3186,1689
6693,3186,1687
6705,3178,1687
6716,3174,1680
6728,3175,1689
6740,3180,1686
6752,3179,1683
6764,3183,1656
6775,3180,1679
6787,3185,1675
6799,3180,1687
6811,3174,1678
6823,3172,1688
6835,3172,1688
6846,3173,1683
6858,3175,1686
6870,3171,1659
6882,3174,1686
6894,3176,1681
6905,3187,1685
6917,3180,1690
6929,3183,1690
6941,3186,1684
6953,3181,1699
6965,3176,1685
6976,3177,1682
6988,3177,1686
7000,3183,1686
7012,3183,1690
7024,3178,1703
7036,3183,1687
7047,3179,1679
7059,3181,1688
7071,3178,1682
7083,3183,1673
7095,3185,1657
7107,3185,1688
7118,3177,1686
7130,3179,1694
7142,3179,1686
7154,3178,1692
7166,3183,1684
7178,3187,1684
7189,3178,1690
7201,3180,1685
7213,3183,1686
7225,3195,1688
7237,3188,1695
7248,3190,1682
7260,3184,1687
7272,3185,1681
7284,3188,1682
7296,3180,1681
7308,3185,1682
7319,3179,1692
7331,3195,1682
7343,3192,1690
7355,3194,1687
7367,3191,1685
7378,3186,1681
7390,3181,1676
7402,3182,1682
7414,3180,1681
7426,3184,1686
7438,3182,1686
7449,3178,1692
7461,3193,1681
7473,3193,1686
7485,3191,1691
7497,3188,1664
7509,3190,1689
7520,3186,1687
7532,3181,1687
7544,3179,1673
7556,3180,1689
7568,3187,1688
7580,3193,1687
7591,3192,1695
7603,3188,1689
7615,3195,1683
7627,3188,1686
7639,3185,1687
7650,3185,1687
7662,3179,1677
7674,3184,1690
7686,3183,1685
7698,3182,1676
7710,3188,1685
7721,3190,1689
7733,3190,1689
7745,3174,1696
7757,3174,1686
7769,3166,1682
7780,3179,1698
7792,3176,1680
7804,3176,1688
7816,3175,1684
7828,3186,1685
7840,3184,1689
7851,3172,1686
7863,3173,1687
7875,3171,1686
7887,3177,1689
7899,3175,1690
7911,3184,1685
7922,3183,1676
7934,3178,1707
7946,3179,1685
7958,3174,1684
7970,3176,1686
7982,3184,1684
7993,3174,1687
8005,3175,1673
8017,3181,1689
8029,3178,1679
8041,3184,1683
8053,3189,1686
8064,3182,1688
8076,3181,1689
8088,3176,1691
8100,3177,1695
8112,3171,1691
8123,3174,1683
8135,3173,1686
8147,3183,1684
8159,3181,1686
8171,3183,1684
8183,3176,1683
8194,3177,1686
8206,3166,1691
8218,3169,1686
8230,3181,1679
8242,3178,1686
8253,3184,1680
8265,3187,1685
8277,3182,1689
8289,3184,1681
8301,3176,1685
8313,3174,1685
8324,3180,1690
8336,3179,1686
8348,3178,1688
8360,3189,1663
8372,3191,1693
8384,3187,1678
8395,3191,1686
8407,3185,1688
8419,3190,1685
8431,3187,1692
8443,3179,1687
8455,3179,1684
8466,3178,1689
8478,3176,1690
8490,3178,1683
8502,3180,1682
8514,3186,1687
8525,3188,1685
8537,3170,1687
8549,3176,1689
8561,3177,1682
8573,3179,1687
8585,3187,1685
8596,3181,1730
8608,3180,1682
8620,3179,1690
8632,3183,1686
8644,3187,1682
8656,3174,1684
8667,3181,1690
8679,3186,1681
8691,3182,1688
8703,3173,1674
8715,3175,1686
8726,3178,1687
8738,3179,1706
8750,3175,1684
8762,3171,1686
8774,3177,1682
8786,3170,1689
8797,3174,1678
8809,3180,1685
8821,3185,1688
8833,3185,1687
8845,3181,1680
8857,3174,1686
8868,3174,1688
8880,3171,1688
8892,3173,1685
8904,3171,1686
8916,3180,1687
8928,3183,1684
8939,3170,1673
8951,3177,1682
8963,3181,1683
8975,3179,1689
8987,3179,1696
8999,3177,1682
9010,3169,1690
9022,3177,1688
9034,3175,1693
9046,3179,1685
9058,3179,1682
9070,3179,1686
9081,3179,1688
9093,3181,1692
9105,3171,1687
9117,3178,1687
9129,3182,1681
9140,3182,1688
9152,3181,1685
9164,3180,1684
9176,3185,1689
9188,3187,1686
9200,3174,1689
9211,3181,1687
9223,3176,1688
9235,3176,1686
9247,3174,1686
9259,3180,1661
9271,3172,1679
9282,3175,1684
9294,3164,1686
9306,3168,1687
9318,3167,1689
9330,3168,1687
9341,3165,1686
9353,3172,1705
9365,3171,1689
9377,3172,1689
9389,3181,1684
9401,3184,1686
9412,3183,1678
9424,3187,1685
9436,3184,1691
9448,3172,1685
9460,3173,1690
9472,3178,1696
9483,3173,1714
9495,3173,1681
9507,3179,1687
9519,3179,1682
9531,3180,1682
9542,3184,1682
9554,3174,1684
9566,3181,1693
9578,3181,1686
9590,3169,1687
9602,3171,1678
9613,3173,1685
9625,3172,1684
9637,3178,1689
9649,3176,1690
9661,3177,1691
9673,3166,1685
9684,3174,1682
9696,3166,1678
9708,3168,1689
9720,3180,1686
9732,3172,1684
9743,3179,1685
9755,3176,1687
9767,3180,1689
9779,3181,1685
9791,3176,1691
9803,3180,1690
9814,3171,1691
9826,3179,1683
9838,3180,1646
9850,3187,1683
9862,3184,1683
9874,3176,1690
9885,3177,1687
9897,3183,1690
9909,3181,1694
9921,3181,1694
9933,3182,1692
9945,3180,1687
9956,3172,1691
9968,3173,1687
9980,3178,1683
9992,3171,1689
10004,3176,1687
10015,3176,1688
10027,3179,1686
10039,3174,1688
10051,3179,1685
10063,3180,1690
10075,3173,1687
10086,3172,1687
10098,3182,1686
10110,3176,1687
10122,3179,1689
10134,3184,1696
10146,3175,1689
10157,3177,1684
10169,3168,1689
10181,3175,1687
10193,3180,1687
10205,3179,1687
10217,3175,1664
10228,3170,1689
10240,3177,1691
10252,3164,1688
10264,3175,1694
10276,3178,1686
10288,3181,1686
10299,3179,1687
10311,3176,1687
10323,3179,1688
10335,3185,1693
10347,3183,1685
10359,3179,1689
10370,3177,1686
10382,3175,1690
10394,3170,1680
10406,3176,1716
10418,3178,1687
10430,3180,1685
10441,3173,1688
10453,3173,1685
10465,3174,1684
10477,3176,1690
10489,3180,1686
10500,3183,1688
10512,3170,1685
10524,3171,1684
10536,3178,1685
10548,3170,1684
10560,3174,1677
10571,3172,1685
10583,3178,1694
10595,3179,1689
10607,3176,1685
10619,3182,1687
10631,3176,1686
10642,3173,1686
10654,3175,1687
10666,3176,1689
10678,3173,1685
10690,3169,1690
10702,3179,1687
10713,3180,1686
10725,3167,1688
10737,3161,1684
10749,3174,1687
10761,3176,1685
10773,3170,1686
10784,3177,1687
10796,3174,1688
10808,3173,1683
10820,3177,1678
10832,3176,1652
10844,3175,1684
10855,3169,1687
10867,3168,1691
10879,3170,1688
10891,3176,1680
10903,3168,1687
10914,3170,1688
10926,3176,1690
10938,3178,1687
10950,3169,1682
10962,3171,1691
10974,3170,1687
10985,3175,1688
10997,3176,1683
11009,3168,1688
11021,3169,1687
11033,3161,1692
11045,3171,1685
11056,3175,1682
11068,3173,1688
11080,3160,1687
11092,3164,1692
11104,3168,1685
11116,3171,1682
11127,3168,1688
11139,3165,1686
11151,3170,1688
11163,3173,1692
11175,3167,1684
11187,3167,1710
11198,3172,1687
11210,3170,1687
11222,3165,1688
11234,3165,1688
11246,3166,1685
11258,3167,1683
11269,3166,1687
11281,3165,1687
11293,3169,1653
11305,3171,1685
11317,3171,1688
11329,3174,1684
11340,3176,1690
11352,3177,1696
11364,3168,1689
11376,3169,1687
11388,3172,1694
11400,3176,1685
11411,3171,1686
11423,3167,1685
11435,3173,1691
11447,3173,1662
11459,3166,1684
11470,3162,1676
11482,3163,1688
11494,3168,1686
11506,3162,1679
11518,3168,1684
11530,3164,1687
11542,3165,1689
11553,3181,1693
11565,3166,1696
11577,3167,1693
11589,3166,1647
11601,3165,1688
11613,3167,1674
11624,3163,1687
11636,3163,1687
11648,3169,1692
11660,3178,1692
11672,3167,1689
11683,3171,1685
11695,3162,1686
11707,3176,1685
11719,3174,1688
11731,3167,1691
11743,3171,1686
11754,3171,1688
11766,3175,1690
11778,3161,1686
11790,3167,1687
11802,3168,1686
11814,3173,1692
11825,3169,1682
11837,3165,1684
11849,3172,1688
11861,3175,1689
11873,3176,1688
11885,3166,1689
11896,3163,1691
11908,3176,1688
11920,3176,1691
11932,3169,1693
11944,3168,1692
11956,3177,1687
11967,3169,1686
11979,3164,1688
11991,3170,1686
12003,3172,1687
12015,3167,1689
12027,3172,1674
12038,3173,1687
12050,3174,1690
12062,3178,1691
12074,3166,1691
12086,3169,1684
12098,3173,1687
12109,3173,1686
12121,3171,1688
12133,3167,1693
12145,3176,1691
12157,3167,1688
12169,3172,1690
12180,3166,1689
12192,3161,1689
12204,3172,1692
12216,3176,1682
12228,3176,1697
12239,3177,1693
12251,3171,1683
12263,3176,1689
12275,3178,1690
12287,3174,1687
12299,3171,1687
12310,3179,1689
12322,3173,1697
12334,3174,1687
12346,3182,1682
12358,3182,1697
12370,3168,1686
12381,3179,1683
12393,3174,1693
12405,3173,1685
12417,3168,1685
12429,3164,1688
12441,3170,1690
12452,3179,1684
12464,3175,1690
12476,3171,1700
12488,3172,1685
12500,3176,1691
12512,3169,1666
12523,3164,1691
12535,3169,1689
12547,3170,1646
12559,3163,1698
12571,3166,1685
12583,3172,1687
12594,3174,1688
12606,3171,1660
12618,3165,1685
12630,3173,1683
12642,3172,1686
12654,3175,1688
12665,3178,1687
12677,3175,1687
12689,3168,1693
12701,3168,1690
12713,3174,1685
12725,3170,1682
12736,3163,1685
12748,3168,1682
12760,3173,1677
12772,3173,1686
12784,3167,1683
12796,3174,1688
12807,3180,1708
12819,3174,1684
12831,3169,1691
12843,3181,1695
12855,3173,1684
12867,3168,1691
12878,3172,1695
12890,3181,1689
12902,3178,1687
12914,3173,1692
12926,3166,1688
12938,3182,1689
12949,3172,1690
12961,3161,1687
12973,3171,1687
12985,3171,1689
12997,3162,1682
13009,3160,1683
13020,3164,1672
13032,3173,1689
13044,3165,1684
13056,3167,1686
13068,3168,1686
13079,3166,1690
13091,3166,1686
13103,3173,1687
13115,3174,1686
13127,3165,1691
13139,3160,1688
13150,3170,1690
13162,3159,1690
13174,3167,1685
13186,3172,1691
13198,3168,1689
13210,3168,1691
13221,3169,1695
13233,3163,1701
13245,3177,1689
13257,3167,1698
13269,3174,1687
13281,3168,1691
13292,3175,1688
13304,3159,1680
13316,3161,1684
13328,3167,1718
13340,3170,1690
13352,3178,1689
13363,3164,1687
13375,3171,1693
13387,3175,1692
13399,3164,1692
13411,3169,1689
13423,3170,1688
13434,3164,1698
13446,3167,1692
13458,3170,1688
13470,3173,1690
13482,3164,1687
13494,3167,1689
13505,3174,1690
13517,3178,1690
13529,3169,1676
13541,3174,1689
13553,3168,1687
13565,3174,1684
13576,3173,1693
13588,3168,1690
13600,3174,1689
13612,3170,1692
13624,3169,1691
13636,3172,1698
13647,3179,1712
13659,3179,1684
13671,3173,1690
13683,3166,1690
13695,3175,1684
13707,3171,1696
13718,3169,1687
13730,3171,1686
13742,3169,1686
13754,3178,1688
13766,3162,1691
13777,3169,1653
13789,3166,1685
13801,3178,1695
13813,3170,1689
13825,3167,1682
13837,3171,1688
13848,3173,1677
13860,3163,1685
13872,3170,1687
13884,3177,1684
13896,3173,1687
13908,3176,1735
13919,3178,1694
13931,3173,1683
13943,3171,1688
13955,3165,1691
13967,3171,1688
13979,3162,1691
13990,3161,1665
14002,3171,1694
14014,3162,1690
14026,3161,1689
14038,3173,1691
14050,3172,1689
14061,3161,1688
14073,3162,1683
14085,3174,1692
14097,3173,1685
14109,3166,1684
14121,3170,1682
14132,3173,1687
14144,3166,1691
14156,3160,1686
14168,3166,1693
14180,3171,1689
14192,3164,1687
14203,3163,1684
14215,3163,1692
14227,3169,1694
14239,3160,1689
14251,3166,1683
14263,3172,1688
14274,3161,1691
14286,3166,1681
14298,3164,1687
14310,3167,1686
14322,3166,1690
14334,3165,1686
14345,3161,1699
14357,3164,1688
14369,3170,1687
14381,3160,1686
14393,3166,1688
14404,3169,1687
14416,3152,1690
14428,3163,1694
14440,3166,1687
14452,3165,1684
14464,3159,1687
14475,3156,1690
14487,3164,1687
14499,3166,1689
14511,3161,1684
14523,3162,1690
14535,3161,1687
14546,3167,1690
14558,3160,1687
14570,3162,1686
14582,3159,1690
14594,3157,1694
14606,3160,1691
14617,3160,1684
14629,3163,1690
14641,3165,1686
14653,3160,1692
14665,3161,1692
14677,3166,1687
14688,3155,1681
14700,3158,1690
14712,3173,1688
14724,3163,1685
14736,3168,1688
14748,3161,1689
14759,3167,1692
14771,3156,1694
14783,3157,1659
14795,3157,1689
14807,3164,1689
14819,3164,1692
14830,3155,1685
14842,3158,1688
14854,3160,1684
14866,3161,1692
14878,3162,1687
14890,3168,1690
14901,3160,1689
14913,3162,1689
14925,3154,1691
14937,3162,1684
14949,3157,1694
14960,3157,1689
14972,3166,1689
14984,3175,1689
14996,3159,1693
15008,3148,1691
15020,3161,1685
15031,3160,1689
15043,3149,1688
15055,3155,1688
15067,3161,1694
15079,3158,1687
15091,3169,1686
15102,3153,1692
15114,3159,1687
15126,3166,1690
15138,3164,1689
15150,3153,1696
15162,3153,1687
15173,3161,1687
15185,3158,1683
15197,3172,1689
15209,3160,1688
15221,3154,1690
15233,3155,1691
15244,3165,1691
15256,3161,1690
15268,3161,1696
15280,3159,1686
15292,3162,1690
15304,3161,1687
15315,3159,1694
15327,3161,1690
15339,3168,1687
15351,3168,1694
15363,3157,1690
15375,3162,1687
15386,3170,1686
15398,3163,1695
15410,3156,1689
15422,3164,1696
15434,3164,1692
15446,3154,1681
15457,3154,1692
15469,3166,1664
15481,3171,1687
15493,3160,1684
15505,3168,1688
15516,3167,1689
15528,3160,1692
15540,3157,1697
15552,3168,1689
15564,3165,1683
15576,3157,1688
15587,3162,1689
15599,3160,1688
15611,3173,1688
15623,3155,1691
15635,3162,1687
15647,3160,1692
15658,3165,1688
15670,3154,1687
15682,3170,1686
15694,3171,1699
15706,3166,1697
15718,3161,1692
15729,3163,1688
15741,3169,1685
15753,3165,1694
15765,3163,1688
15777,3171,1693
15789,3168,1693
15800,3171,1689
15812,3172,1689
15824,3172,1672
15836,3171,1685
15848,3161,1689
15860,3165,1687
15871,3169,1686
15883,3174,1721
15895,3164,1686
15907,3168,1693
15919,3176,1692
15931,3169,1691
15942,3159,1692
15954,3167,1693
15966,3169,1688
15978,3165,1688
15990,3167,1688
16002,3167,1685
16013,3166,1688
16025,3160,1689
16037,3161,1695
16049,3174,1688
16061,3165,1693
16072,3166,1688
16084,3177,1705
16096,3172,1691
16108,3164,1686
16120,3167,1693
16132,3170,1694
16143,3171,1690
16155,3163,1687
16167,3174,1696
16179,3159,1693
16191,3160,1689
16203,3166,1692
16214,3176,1684
16226,3168,1688
16238,3169,1689
16250,3161,1687
16262,3160,1688
16274,3164,1687
16285,3174,1690
16297,3167,1690
16309,3174,1692
16321,3184,1689
16333,3166,1676
16345,3168,1688
16356,3179,1686
16368,3177,1692
16380,3165,1690
16392,3169,1698
16404,3182,1691
16416,3170,1689
16427,3168,1685
16439,3177,1691
16451,3174,1693
16463,3168,1686
16475,3171,1687
16487,3170,1686
16498,3178,1693
16510,3165,1688
16522,3168,1691
16534,3171,1687
16546,3166,1688
16558,3158,1691
16569,3165,1683
16581,3167,1671
16593,3160,1687
16605,3158,1685
16617,3170,1689
16629,3167,1684
16640,3164,1689
16652,3161,1714
16664,3167,1690
16676,3167,1690
16688,3157,1687
16700,3158,1693
16711,3164,1687
16723,3169,1692
16735,3164,1692
16747,3163,1697
16759,3173,1688
16771,3171,1689
16782,3161,1692
16794,3162,1686
16806,3156,1684
16818,3170,1694
16830,3159,1688
16842,3159,1690
16853,3161,1684
16865,3173,1690
16877,3169,1690
16889,3160,1691
16901,3155,1691
16913,3174,1693
16924,3171,1693
16936,3161,1684
16948,3167,1690
16960,3171,1692
16972,3155,1690
16984,3165,1694
16995,3172,1696
17007,3166,1664
17019,3173,1692
17031,3171,1679
17043,3165,1694
17055,3170,1696
17066,3169,1690
17078,3173,1693
17090,3166,1700
17102,3165,1687
17114,3173,1656
17126,3172,1686
17137,3164,1689
17149,3164,1690
17161,3174,1691
17173,3162,1679
17185,3171,1694
17197,3175,1695
17208,3175,1694
17220,3168,1688
17232,3167,1686
17244,3168,1688
17256,3167,1685
17267,3160,1685
17279,3157,1691
17291,3171,1690
17303,3175,1694
17315,3161,1651
17327,3159,1690
17338,3165,1688
17350,3168,1687
17362,3164,1695
17374,3167,1694
17386,3168,1695
17398,3164,1691
17409,3161,1686
17421,3158,1689
17433,3173,1687
17445,3167,1689
17457,3163,1698
17469,3172,1690
17480,3178,1694
17492,3166,1692
17504,3163,1691
17516,3167,1687
17528,3168,1690
17540,3163,1687
17551,3172,1690
17563,3173,1689
17575,3166,1690
17587,3163,1687
17599,3165,1695
17611,3171,1694
17622,3159,1691
17634,3165,1693
17646,3165,1691
17658,3165,1695
17670,3162,1694
17682,3169,1688
17693,3175,1684
17705,3169,1688
17717,3159,1661
17729,3160,1685
17741,3166,1687
17753,3156,1685
17764,3157,1687
17776,3154,1688
17788,3166,1662
17800,3157,1690
17812,3162,1687
17824,3166,1690
17835,3166,1684
17847,3167,1657
17859,3163,1693
17871,3171,1686
17883,3160,1686
17895,3166,1684
17906,3171,1698
17918,3168,1684
17930,3162,1692
17942,3160,1685
17954,3173,1690
17966,3171,1665
17977,3169,1689
17989,3167,1690
18001,3170,1693
18013,3181,1685
18025,3167,1687
18037,3163,1688
18048,3169,1692
18060,3166,1690
18072,3165,1693
18084,3166,1691
18096,3170,1690
18107,3157,1686
18119,3168,1685
18131,3162,1687
18143,3169,1688
18155,3158,1690
18167,3166,1698
18178,3167,1697
18190,3170,1692
18202,3166,1692
18214,3161,1688
18226,3170,1687
18238,3174,1695
18249,3160,1690
18261,3157,1691
18273,3173,1685
18285,3164,1687
18297,3165,1684
18309,3169,1691
18320,3173,1691
18332,3161,1696
18344,3160,1694
18356,3168,1687
18368,3166,1659
18380,3161,1685
18391,3162,1692
18403,3164,1661
18415,3171,1695
18427,3164,1684
18439,3161,1691
18451,3170,1693
18462,3165,1720
18474,3161,1701
18486,3169,1690
18498,3171,1683
18510,3160,1692
18522,3162,1687
18533,3170,1737
18545,3168,1692
18557,3158,1713
18569,3161,1679
18581,3166,1681
18593,3171,1692
18604,3165,1694
18616,3162,1685
18628,3170,1688
18640,3170,1692
18652,3160,1691
18664,3163,1717
18675,3171,1683
18687,3161,1695
18699,3164,1686
18711,3165,1683
18723,3170,1690
18735,3156,1686
18746,3151,1685
18758,3158,1695
18770,3165,1690
18782,3168,1687
18794,3160,1689
18806,3161,1687
18817,3163,1689
18829,3156,1673
18841,3160,1697
18853,3168,1690
18865,3159,1688
18877,3162,1654
18888,3160,1688
18900,3166,1686
18912,3155,1692
18924,3147,1688
18936,3157,1687
18948,3164,1696
18959,3157,1687
18971,3141,1685
18983,3151,1690
18995,3147,1690
19007,3148,1687
19019,3138,1686
19030,3141,1689
19042,3142,1689
19054,3136,1690
19066,3152,1687
19078,3149,1691
19090,3145,1688
19101,3147,1690
19113,3152,1687
19125,3161,1688
19137,3151,1691
19149,3158,1684
19160,3163,1653
19172,3162,1661
19184,3154,1695
19196,3148,1691
19208,3156,1691
19220,3155,1653
19231,3150,1684
19243,3154,1691
19255,3158,1687
19267,3145,1694
19279,3147,1686
19291,3153,1685
19302,3157,1694
19314,3151,1687
19326,3146,1686
19338,3153,1687
19350,3155,1686
19362,3151,1692
19373,3150,1681
19385,3158,1691
19397,3151,1689
19409,3150,1686
19421,3158,1683
19433,3155,1684
19444,3146,1693
19456,3144,1687
19468,3152,1685
19480,3160,1689
19492,3151,1688
19504,3148,1741
19515,3151,1691
19527,3161,1694
19539,3151,1690
19551,3150,1685
19563,3150,1693
19575,3156,1690
19586,3150,1680
19598,3152,1702
19610,3157,1689
19622,3156,1690
19634,3151,1685
19646,3158,1687
19657,3167,1684
19669,3155,1685
19681,3151,1689
19693,3162,1690
19705,3162,1691
19717,3157,1688
19728,3155,1691
19740,3157,1693
19752,3164,1691
19764,3150,1691
19776,3154,1690
19788,3161,1692
19799,3154,1688
19811,3147,1695
19823,3149,1688
19835,3155,1687
19847,3155,1691
19859,3142,1691
19870,3147,1692
19882,3149,1689
19894,3152,1699
19906,3145,1683
19918,3144,1686
19930,3145,1687
19941,3143,1681
19953,3150,1686
19965,3156,1691
19977,3149,1691
19989,3147,1688
20000,3149,1690
20012,3156,1694
20024,3151,1685
20036,3150,1679
20048,3153,1684
20060,3153,1687
20071,3146,1682
20083,3153,1690
20095,3154,1693
20107,3151,1692
20119,3142,1695
20131,3155,1690
20143,3150,1687
20154,3149,1692
20166,3155,1691
20178,3145,1687
20190,3156,1688
20202,3157,1690
20214,3155,1687
20225,3150,1690
20237,3148,1684
20249,3150,1687
20261,3146,1688
20273,3152,1687
20285,3155,1694
20296,3153,1690
20308,3156,1694
20320,3159,1690
20332,3151,1685
20344,3145,1689
20355,3148,1700
20367,3158,1687
20379,3144,1709
20391,3144,1696
20403,3148,1686
20415,3156,1699
20426,3155,1696
20438,3155,1687
20450,3162,1691
20462,3149,1698
20474,3154,1683
20486,3158,1687
20498,3158,1687
20509,3145,1687
20521,3150,1686
20533,3145,1689
20545,3153,1685
20557,3157,1687
20569,3142,1686
20580,3152,1692
20592,3153,1691
20604,3149,1684
20616,3145,1686
20628,3150,1670
20639,3151,1689
20651,3146,1691
20663,3151,1681
20675,3161,1692
20687,3157,1738
20699,3155,1689
20710,3150,1691
20722,3158,1689
20734,3149,1679
20746,3151,1662
20758,3149,1686
20770,3152,1690
20781,3151,1691
20793,3144,1690
20805,3153,1688
20817,3150,1682
20829,3143,1689
20841,3148,1686
20852,3154,1696
20864,3157,1691
20876,3149,1683
20888,3156,1697
20900,3159,1687
20912,3154,1685
20923,3149,1690
20935,3153,1692
20947,3159,1690
20959,3149,1686
20971,3154,1692
20983,3155,1685
20994,3145,1687
21006,3151,1688
21018,3150,1691
21030,3146,1692
21042,3140,1688
21054,3141,1685
21066,3144,1692
21077,3145,1691
21089,3150,1678
21101,3144,1683
21113,3153,1689
21125,3149,1689
21137,3153,1697
21148,3149,1693
21160,3154,1691
21172,3145,1689
21184,3139,1687
21196,3147,1691
21208,3150,1688
21219,3164,1684
21231,3152,1689
21243,3152,1683
21255,3151,1685
21267,3142,1688
21278,3146,1683
21290,3144,1692
21302,3157,1684
21314,3148,1692
21326,3149,1687
21338,3154,1687
21349,3160,1684
21361,3136,1661
21373,3146,1681
21385,3149,1692
21397,3152,1680
21409,3151,1693
21420,3149,1688
21432,3155,1690
21444,3136,1687
21456,3136,1686
21468,3149,1688
21480,3157,1685
21491,3142,1693
21503,3147,1685
21515,3152,1682
21527,3143,1685
21539,3142,1691
21551,3145,1687
21562,3148,1685
21574,3148,1693
21586,3141,1690
21598,3146,1683
21610,3152,1689
21622,3144,1691
21633,3143,1688
21645,3142,1691
21657,3145,1691
21669,3133,1685
21681,3139,1689
21693,3151,1698
21704,3140,1690
21716,3141,1692
21728,3147,1687
21740,3150,1688
21752,3145,1683
21764,3138,1690
21775,3144,1692
21787,3152,1682
21799,3140,1691
21811,3146,1690
21823,3142,1686
21835,3150,1650
21846,3147,1689
21858,3154,1691
21870,3149,1686
21882,3150,1688
21894,3145,1682
21906,3142,1692
21917,3151,1685
21929,3134,1689
21941,3148,1692
21953,3138,1690
21965,3155,1682
21977,3151,1695
21988,3151,1691
22000,3146,1691
22012,3150,1687
22024,3146,1689
22036,3137,1657
22048,3142,1685
22059,3144,1685
22071,3146,1692
22083,3142,1688
22095,3144,1695
22107,3138,1687
22119,3141,1691
22130,3149,1687
22142,3134,1692
22154,3143,1690
22166,3153,1690
22178,3135,1686
22190,3140,1688
22201,3145,1685
22213,3147,1682
22225,3130,1687
22237,3141,1691
22249,3150,1686
22261,3145,1691
22272,3146,1687
22284,3157,1692
22296,3142,1687
22308,3146,1684
22320,3149,1691
22332,3154,1676
22343,3143,1698
22355,3150,1685
22367,3147,1692
22379,3151,1690
22391,3153,1700
22403,3150,1686
22414,3146,1688
22426,3149,1682
22438,3146,1692
22450,3144,1710
22462,3155,1690
22474,3152,1691
22485,3149,1691
22497,3149,1695
22509,3151,1686
22521,3144,1696
22533,3149,1686
22545,3159,1690
22556,3162,1694
22568,3149,1689
22580,3147,1700
22592,3146,1695
22604,3146,1692
22616,3150,1662
22627,3160,1690
22639,3147,1688
22651,3142,1686
22663,3149,1684
22675,3151,1692
22687,3145,1687
22698,3148,1699
22710,3145,1687
22722,3149,1695
22734,3147,1688
22746,3145,1699
22758,3151,1690
22769,3146,1688
22781,3146,1690
22793,3145,1667
22805,3139,1690
22817,3143,1687
22829,3154,1692
22840,3143,1694
22852,3145,1689
22864,3157,1698
22876,3140,1694
22888,3145,1690
22900,3156,1688
22911,3151,1689
22923,3143,1690
22935,3146,1691
22947,3154,1686
22959,3150,1688
22971,3153,1715
22982,3151,1657
22994,3156,1658
23006,3144,1685
23018,3141,1693
23030,3154,1692
23042,3158,1703
23053,3146,1690
23065,3149,1689
23077,3154,1685
23089,3139,1688
23101,3134,1689
23113,3152,1689
23124,3151,1690
23136,3145,1688
23148,3143,1689
23160,3153,1690
23172,3152,1692
23184,3139,1687
23195,3143,1690
23207,3150,1683
23219,3154,1696
23231,3148,1695
23243,3147,1691
23255,3150,1687
23266,3143,1690
23278,3146,1688
23290,3139,1686
23302,3146,1693
23314,3149,1687
23326,3142,1690
23337,3156,1688
23349,3155,1688
23361,3140,1683
23373,3146,1687
23385,3152,1687
23397,3150,1691
23408,3150,1691
23420,3144,1686
23432,3152,1687
23444,3144,1689
23456,3140,1688
23468,3142,1690
23479,3152,1687
23491,3150,1689
23503,3141,1691
23515,3146,1689
23527,3158,1687
23539,3141,1688
23550,3142,1687
23562,3147,1689
23574,3151,1693
23586,3139,1691
23598,3143,1687
23610,3150,1689
23621,3149,1693
23633,3147,1731
23645,3145,1687
23657,3142,1691
23669,3150,1694
23681,3147,1685
23692,3143,1696
23704,3156,1676
23716,3146,1691
23728,3141,1686
23740,3145,1694
23751,3151,1690
23763,3145,1698
23775,3146,1684
23787,3151,1689
23799,3157,1699
23811,3141,1702
23822,3144,1683
23834,3146,1690
23846,3147,1690
23858,3139,1682
23870,3146,1698
23882,3152,1687
23893,3138,1692
23905,3148,1691
23917,3153,1690
23929,3152,1686
23941,3144,1684
23953,3147,1687
23964,3144,1690
23976,3151,1687
23988,3140,1690
24000,3138,1691
24012,3142,1695
24024,3138,1690
24035,3129,1687
24047,3142,1742
24059,3151,1672
24071,3145,1687
24083,3135,1691
24095,3139,1696
24106,3149,1697
24118,3137,1693
24130,3142,1693
24142,3161,1689
24154,3149,1691
24166,3141,1687
24177,3154,1685
24189,3151,1692
24201,3145,1687
24213,3143,1691
24225,3141,1689
24237,3141,1678
24248,3150,1689
24260,3140,1687
24272,3142,1687
24284,3153,1688
24296,3143,1688
24308,3141,1691
24319,3147,1693
24331,3147,1676
24343,3139,1688
24355,3143,1689
24367,3154,1682
24379,3149,1688
24390,3146,1694
24402,3145,1651
24414,3149,1690
24426,3142,1688
24438,3147,1687
24450,3152,1695
24461,3152,1688
24473,3144,1686
24485,3149,1690
24497,3153,1660
24509,3146,1696
24521,3139,1687
24532,3145,1687
24544,3141,1681
24556,3147,1687
24568,3153,1690
24580,3149,1688
24592,3141,1686
24603,3144,1681
24615,3150,1689
24627,3149,1688
24639,3140,1686
24651,3156,1690
24662,3143,1683
24674,3144,1687
24686,3157,1689
24698,3143,1688
24710,3142,1684
24722,3147,1687
24734,3147,1700
24745,3141,1687
24757,3147,1712
24769,3145,1728
24781,3149,1690
24793,3142,1685
24805,3157,1690
24816,3148,1661
24828,3150,1688
24840,3140,1684
24852,3141,1684
24864,3146,1685
24876,3146,1686
24887,3139,1690
24899,3148,1690
24911,3156,1686
24923,3145,1660
24935,3136,1690
24947,3140,1691
24958,3142,1698
24970,3135,1685
24982,3141,1684
24994,3148,1685
25006,3144,1687
25017,3140,1700
25029,3143,1688
25041,3152,1690
25053,3138,1688
25065,3145,1686
25077,3139,1697
25088,3141,1687
25100,3140,1697
25112,3138,1688
25124,3145,1693
25136,3145,1691
25148,3146,1688
25159,3146,1687
25171,3149,1687
25183,3144,1690
25195,3131,1693
25207,3139,1689
25219,3144,1693
25230,3138,1688
25242,3134,1685
25254,3146,1688
25266,3150,1688
25278,3142,1701
25290,3140,1691
25301,3145,1717
25313,3147,1689
25325,3144,1684
25337,3137,1692
25349,3146,1694
25361,3143,1694
25372,3144,1727
25384,3148,1690
25396,3139,1691
25408,3137,1688
25420,3138,1697
25432,3151,1689
25443,3145,1687
25455,3139,1688
25467,3141,1694
25479,3142,1673
25491,3145,1690
25503,3137,1693
25515,3139,1691
25526,3139,1686
25538,3146,1690
25550,3139,1697
25562,3135,1690
25574,3145,1690
25585,3144,1690
25597,3135,1686
25609,3146,1682
25621,3147,1693
25633,3142,1687
25645,3140,1690
25656,3148,1690
25668,3140,1688
25680,3142,1683
25692,3147,1691
25704,3149,1689
25716,3138,1690
25727,3142,1690
25739,3151,1685
25751,3150,1690
25763,3134,1684
25775,3139,1688
25787,3138,1689
25798,3144,1691
25810,3144,1689
25822,3145,1686
25834,3144,1689
25846,3140,1692
25858,3143,1693
25869,3145,1687
25881,3144,1694
25893,3137,1688
25905,3139,1713
25917,3135,1688
25929,3142,1690
25940,3134,1698
25952,3136,1689
25964,3148,1691
25976,3139,1688
25988,3135,1702
26000,3146,1690
26011,3141,1691
26023,3134,1693
26035,3142,1690
26047,3140,1686
26059,3144,1688
26071,3141,1691
26082,3127,1690
26094,3145,1689
26106,3143,1687
26118,3140,1681
26130,3147,1683
26142,3130,1692
26153,3140,1683
26165,3147,1694
26177,3128,1693
26189,3144,1685
26201,3142,1688
26213,3135,1687
26224,3135,1690
26236,3143,1730
26248,3145,1694
26260,3145,1694
26272,3142,1701
26284,3137,1691
26295,3139,1693
26307,3128,1689
26319,3130,1691
26331,3135,1691
26343,3134,1692
26355,3139,1688
26366,3142,1689
26378,3134,1689
26390,3142,1691
26402,3145,1692
26414,3140,1688
26426,3148,1686
26437,3134,1690
26449,3136,1693
26461,3140,1688
26473,3132,1684
26485,3128,1690
26496,3137,1686
26508,3136,1692
26520,3127,1691
26532,3129,1691
26544,3132,1688
26556,3140,1684
26567,3130,1689
26579,3127,1695
26591,3138,1692
26603,3143,1690
26615,3138,1692
26627,3140,1692
26638,3148,1694
26650,3139,1688
26662,3140,1691
26674,3134,1692
26686,3144,1685
26698,3136,1685
26710,3132,1688
26721,3142,1691
26733,3133,1694
26745,3138,1690
26757,3130,1689
26769,3134,1685
26781,3135,1685
26792,3130,1692
26804,3131,1688
26816,3139,1693
26828,3127,1698
26840,3127,1685
26852,3131,1692
26863,3135,1687
26875,3128,1697
26887,3145,1697
26899,3131,1686
26911,3133,1688
26923,3135,1692
26934,3131,1693
26946,3134,1690
26958,3139,1696
26970,3125,1688
26982,3127,1695
26993,3140,1693
27005,3133,1690
27017,3133,1688
27029,3126,1689
27041,3132,1694
27053,3125,1692
27065,3130,1693
27076,3136,1697
27088,3135,1691
27100,3129,1688
27112,3119,1684
27124,3133,1691
27136,3122,1693
27147,3128,1688
27159,3131,1688
27171,3126,1689
27183,3132,1693
27195,3126,1688
27207,3134,1688
27218,3134,1689
27230,3133,1697
27242,3128,1689
27254,3143,1693
27266,3134,1695
27278,3135,1690
27289,3145,1685
27301,3135,1694
27313,3136,1700
27325,3145,1690
27337,3125,1654
27349,3131,1687
27360,3133,1685
27372,3131,1689
27384,3130,1718
27396,3138,1690
27408,3142,1688
27420,3134,1692
27431,3143,1698
27443,3133,1694
27455,3138,1687
27467,3140,1691
27479,3133,1687
27491,3140,1690
27502,3138,1689
27514,3136,1667
27526,3134,1692
27538,3145,1721
27550,3134,1692
27562,3140,1692
27573,3139,1691
27585,3132,1703
27597,3135,1695
27609,3144,1655
27621,3149,1692
27633,3128,1661
27644,3140,1692
27656,3141,1715
27668,3145,1690
27680,3141,1691
27692,3136,1694
27704,3138,1696
27715,3138,1697
27727,3133,1692
27739,3130,1690
27751,3133,1684
27763,3126,1687
27775,3128,1693
27786,3129,1689
27798,3129,1688
27810,3138,1687
27822,3130,1691
27834,3128,1690
27846,3142,1692
27857,3134,1691
27869,3134,1688
27881,3138,1693
27893,3134,1691
27905,3134,1687
27917,3132,1695
27928,3129,1673
27940,3128,1693
27952,3124,1686
27964,3123,1696
27976,3128,1686
27988,3124,1694
27999,3124,1688
28011,3128,1686
28023,3133,1697
28035,3127,1689
28047,3133,1688
28059,3127,1689
28070,3130,1678
28082,3131,1692
28094,3123,1686
28106,3128,1690
28118,3123,1691
28130,3121,1694
28141,3133,1693
28153,3134,1691
28165,3124,1684
28177,3124,1693
28189,3129,1689
28201,3125,1692
28213,3139,1688
28224,3122,1690
28236,3126,1690
28248,3128,1689
28260,3131,1696
28272,3117,1684
28283,3125,1690
28295,3132,1689
28307,3123,1692
28319,3131,1696
28331,3122,1687
28343,3133,1688
28354,3129,1692
28366,3124,1691
28378,3134,1696
28390,3132,1692
28402,3130,1697
28414,3130,1694
28425,3123,1693
28437,3128,1691
28449,3125,1692
28461,3127,1694
28473,3129,1685
28485,3131,1680
28496,3128,1687
28508,3129,1688
28520,3129,1691
28532,3132,1684
28544,3118,1690
28556,3124,1690
28568,3124,1699
28579,3126,1690
28591,3136,1692
28603,3142,1690
28615,3140,1687
28627,3140,1693
28639,3128,1688
28650,3133,1690
28662,3145,1690
28674,3138,1685
28686,3134,1692
28698,3140,1690
28709,3132,1687
28721,3133,1691
28733,3144,1689
28745,3144,1684
28757,3134,1693
28769,3134,1686
28780,3142,1697
28792,3138,1692
28804,3136,1691
28816,3138,1688
28828,3145,1694
28840,3135,1691
28851,3141,1692
28863,3130,1690
28875,3134,1687
28887,3140,1692
28899,3130,1693
28911,3149,1690
28923,3130,1683
28934,3136,1692
28946,3142,1691
28958,3129,1688
28970,3140,1694
28982,3143,1686
28994,3132,1689
29005,3139,1690
29017,3140,1682
29029,3133,1695
29041,3138,1691
29053,3146,1697
29065,3131,1692
29076,3130,1690
29088,3144,1689
29100,3136,1696
29112,3142,1693
29124,3131,1691
29136,3132,1697
29147,3136,1694
29159,3129,1689
29171,3134,1676
29183,3137,1687
29195,3143,1690
29207,3128,1691
29218,3135,1690
29230,3137,1692
29242,3134,1691
29254,3124,1691
29266,3129,1688
29278,3140,1696
29289,3124,1691
29301,3130,1692
29313,3129,1690
29325,3132,1689
29337,3144,1682
29349,3133,1690
29360,3132,1697
29372,3138,1686
29384,3133,1696
29396,3137,1689
29408,3138,1696
29420,3132,1693
29431,3127,1684
29443,3132,1685
29455,3129,1687
29467,3131,1691
29479,3121,1688
29491,3126,1695
29502,3135,1700
29514,3128,1663
29526,3129,1712
29538,3132,1696
29550,3124,1689
29562,3135,1689
29573,3130,1687
29585,3138,1686
29597,3123,1692
29609,3136,1684
29621,3139,1685
29633,3127,1691
29644,3124,1691
29656,3129,1691
29668,3138,1691
29680,3126,1690
29692,3133,1695
29704,3133,1690
29715,3137,1690
29727,3132,1686
29739,3134,1699
29751,3133,1694
29763,3138,1687
29775,3130,1685
29786,3135,1684
29798,3135,1689
29810,3138,1691
29822,3134,1697
29834,3137,1689
29846,3128,1672
29857,3139,1693
29869,3132,1692
29881,3138,1689
29893,3133,1691
29905,3131,1689
29917,3131,1693
29928,3127,1691
29940,3135,1694
29952,3122,1692
29964,3124,1691
29976,3138,1679
29988,3138,1666
29999,3133,1689
