timestamp_ms,ppg1,ppg2
0,2421,2560
12,2436,2579
24,2427,2581
35,2419,2580
47,2407,2568
59,2410,2570
71,2389,2562
83,2394,2564
95,2402,2574
106,2404,2577
118,2417,2594
130,2465,2578
142,2501,2581
154,2556,2574
165,2602,2565
177,2645,2571
189,2666,2568
201,2677,2577
213,2658,2559
225,2619,2572
236,2590,2564
248,2531,2577
260,2486,2581
272,2437,2582
284,2401,2565
295,2398,2577
307,2374,2596
319,2378,2589
331,2391,2594
343,2411,2568
355,2416,2586
366,2428,2581
378,2438,2586
390,2436,2579
402,2437,2574
414,2430,2584
426,2444,2583
437,2434,2586
449,2424,2575
461,2443,2573
473,2444,2569
485,2438,2565
496,2443,2572
508,2450,2569
520,2444,2576
532,2441,2570
544,2438,2558
556,2418,2564
567,2416,2554
579,2401,2557
591,2398,2545
603,2394,2554
615,2397,2569
626,2398,2581
638,2398,2570
650,2406,2566
662,2393,2594
674,2410,2586
686,2410,2579
697,2403,2597
709,2414,2590
721,2396,2581
733,2404,2584
745,2396,2570
756,2388,2582
768,2398,2574
780,2398,2592
792,2385,2596
804,2382,2573
816,2393,2568
827,2412,2575
839,2435,2565
851,2478,2564
863,2544,2552
875,2589,2580
886,2615,2565
898,2631,2556
910,2636,2580
922,2615,2563
934,2599,2560
946,2570,2565
957,2519,2562
969,2480,2565
981,2459,2556
993,2441,2576
1005,2413,2549
1017,2400,2570
1028,2402,2567
1040,2400,2578
1052,2401,2596
1064,2404,2584
1076,2389,2591
1087,2395,2590
1099,2390,2583
1111,2391,2559
1123,2384,2577
1135,2405,2567
1147,2421,2565
1158,2437,2569
1170,2434,2566
1182,2444,2567
1194,2453,2586
1206,2441,2568
1218,2445,2543
1229,2433,2561
1241,2429,2561
1253,2405,2537
1265,2407,2527
1277,2410,2524
1289,2402,2530
1300,2403,2524
1312,2398,2542
1324,2383,2561
1336,2387,2553
1348,2394,2553
1359,2407,2554
1371,2392,2579
1383,2408,2570
1395,2416,2570
1407,2397,2568
1419,2401,2540
1430,2394,2544
1442,2402,2565
1454,2403,2588
1466,2408,2587
1478,2414,2574
1490,2403,2597
1501,2398,2592
1513,2395,2588
1525,2405,2586
1537,2392,2579
1549,2419,2591
1561,2450,2582
1572,2473,2574
1584,2529,2558
1596,2581,2579
1608,2619,2571
1620,2633,2567
1631,2653,2591
1643,2639,2579
1655,2615,2595
1667,2562,2592
1679,2534,2603
1691,2500,2592
1702,2476,2567
1714,2444,2576
1726,2435,2577
1738,2429,2593
1750,2422,2609
1762,2434,2597
1773,2434,2613
1785,2432,2597
1797,2434,2611
1809,2423,2622
1821,2412,2597
1833,2404,2605
1844,2410,2580
1856,2402,2581
1868,2414,2565
1880,2424,2559
1892,2428,2568
1904,2438,2558
1915,2427,2549
1927,2439,2557
1939,2424,2551
1951,2423,2565
1963,2421,2569
1974,2403,2578
1986,2406,2586
1998,2426,2598
2010,2434,2615
2022,2427,2618
2034,2426,2592
2045,2435,2600
2057,2427,2631
2069,2433,2618
2081,2429,2610
2093,2419,2590
2105,2416,2601
2116,2416,2576
2128,2427,2599
2140,2411,2586
2152,2412,2614
2164,2415,2610
2176,2410,2618
2187,2407,2601
2199,2398,2591
2211,2402,2597
2223,2395,2589
2235,2403,2591
2246,2397,2597
2258,2394,2590
2270,2400,2596
2282,2416,2589
2294,2447,2587
2306,2479,2588
2317,2523,2596
2329,2568,2587
2341,2615,2588
2353,2640,2594
2365,2676,2576
2377,2674,2581
2388,2652,2572
2400,2618,2587
2412,2592,2580
2424,2545,2582
2436,2505,2599
2448,2465,2588
2459,2445,2589
2471,2421,2564
2483,2413,2589
2495,2407,2591
2507,2414,2569
2519,2413,2588
2530,2405,2579
2542,2394,2592
2554,2378,2582
2566,2371,2561
2578,2369,2558
2589,2363,2554
2601,2373,2575
2613,2391,2576
2625,2400,2594
2637,2409,2589
2649,2432,2609
2660,2442,2602
2672,2429,2599
2684,2433,2577
2696,2427,2558
2708,2426,2567
2720,2403,2552
2731,2410,2574
2743,2414,2577
2755,2409,2571
2767,2407,2570
2779,2409,2580
2791,2411,2569
2802,2422,2568
2814,2419,2560
2826,2426,2561
2838,2413,2579
2850,2420,2575
2862,2424,2561
2873,2409,2580
2885,2407,2584
2897,2405,2593
2909,2415,2601
2921,2409,2589
2932,2418,2598
2944,2420,2581
2956,2418,2586
2968,2416,2577
2980,2414,2574
2992,2403,2564
3003,2407,2558
3015,2391,2568
3027,2415,2594
3039,2431,2581
3051,2464,2587
3063,2529,2590
3074,2573,2586
3086,2616,2578
3098,2656,2572
3110,2664,2559
3122,2654,2569
3134,2639,2571
3145,2608,2569
3157,2561,2576
3169,2510,2568
3181,2482,2552
3193,2464,2562
3205,2450,2567
3216,2429,2570
3228,2430,2594
3240,2415,2574
3252,2414,2579
3264,2416,2589
3276,2422,2586
3287,2417,2578
3299,2422,2581
3311,2435,2591
3323,2417,2590
3335,2425,2605
3346,2428,2596
3358,2422,2588
3370,2426,2574
3382,2417,2565
3394,2427,2564
3406,2433,2576
3417,2433,2565
3429,2441,2585
3441,2444,2567
3453,2429,2565
3465,2439,2559
3477,2425,2571
3488,2406,2557
3500,2412,2557
3512,2409,2538
3524,2413,2549
3536,2420,2558
3548,2425,2550
3559,2430,2583
3571,2425,2570
3583,2422,2584
3595,2415,2581
3607,2407,2563
3619,2397,2588
3630,2409,2581
3642,2396,2576
3654,2398,2566
3666,2408,2576
3678,2404,2571
3689,2415,2555
3701,2409,2572
3713,2417,2575
3725,2403,2586
3737,2395,2588
3749,2404,2583
3760,2394,2580
3772,2405,2602
3784,2423,2607
3796,2475,2611
3808,2497,2609
3820,2545,2596
3831,2589,2606
3843,2629,2599
3855,2633,2575
3867,2618,2580
3879,2609,2569
3891,2569,2552
3902,2532,2557
3914,2513,2544
3926,2473,2551
3938,2448,2573
3950,2438,2573
3962,2438,2591
3973,2436,2605
3985,2429,2611
3997,2431,2630
4009,2420,2639
4021,2409,2636
4033,2404,2628
4044,2414,2621
4056,2409,2610
4068,2402,2621
4080,2393,2620
4092,2404,2608
4103,2406,2603
4115,2411,2568
4127,2423,2572
4139,2411,2567
4151,2414,2572
4163,2414,2566
4174,2427,2566
4186,2430,2564
4198,2430,2572
4210,2435,2590
4222,2429,2567
4234,2417,2568
4245,2420,2575
4257,2404,2562
4269,2417,2557
4281,2415,2566
4293,2424,2566
4305,2412,2563
4316,2399,2577
4328,2406,2595
4340,2418,2592
4352,2410,2589
4364,2410,2585
4376,2422,2579
4387,2411,2590
4399,2423,2572
4411,2439,2582
4423,2418,2605
4435,2417,2593
4446,2428,2599
4458,2418,2597
4470,2412,2583
4482,2404,2573
4494,2417,2578
4506,2408,2579
4517,2415,2565
4529,2433,2565
4541,2467,2572
4553,2498,2594
4565,2554,2580
4577,2608,2580
4588,2629,2591
4600,2647,2599
4612,2649,2613
4624,2616,2611
4636,2591,2585
4648,2557,2568
4659,2523,2588
4671,2479,2566
4683,2461,2545
4695,2450,2542
4707,2411,2543
4719,2414,2552
4730,2421,2584
4742,2434,2596
4754,2432,2597
4766,2429,2588
4778,2427,2607
4790,2414,2609
4801,2409,2596
4813,2415,2596
4825,2403,2606
4837,2404,2606
4849,2413,2596
4860,2424,2608
4872,2426,2600
4884,2436,2597
4896,2438,2580
4908,2444,2575
4920,2437,2580
4931,2437,2567
4943,2447,2571
4955,2434,2569
4967,2415,2582
4979,2413,2588
4991,2412,2588
5002,2402,2579
5014,2409,2572
5026,2410,2588
5038,2414,2588
5050,2416,2579
5062,2421,2590
5073,2418,2592
5085,2423,2576
5097,2423,2580
5109,2428,2556
5121,2425,2554
5133,2421,2544
5144,2437,2556
5156,2435,2555
5168,2443,2588
5180,2444,2571
5192,2440,2586
5203,2435,2594
5215,2420,2580
5227,2437,2578
5239,2411,2566
5251,2401,2556
5263,2403,2579
5274,2413,2598
5286,2437,2582
5298,2472,2574
5310,2535,2563
5322,2570,2567
5334,2612,2569
5345,2641,2565
5357,2638,2570
5369,2618,2551
5381,2596,2571
5393,2553,2560
5405,2513,2578
5416,2492,2586
5428,2480,2566
5440,2472,2603
5452,2458,2584
5464,2461,2613
5476,2454,2584
5487,2434,2590
5499,2420,2581
5511,2406,2577
5523,2401,2572
5535,2386,2557
5547,2390,2560
5558,2383,2555
5570,2390,2546
5582,2396,2552
5594,2408,2570
5606,2418,2579
5618,2444,2565
5629,2459,2580
5641,2450,2599
5653,2450,2590
5665,2440,2589
5677,2432,2569
5689,2402,2564
5700,2396,2565
5712,2389,2562
5724,2381,2566
5736,2387,2554
5748,2395,2566
5759,2393,2581
5771,2407,2584
5783,2407,2587
5795,2408,2591
5807,2413,2586
5819,2412,2569
5830,2406,2569
5842,2420,2566
5854,2418,2557
5866,2409,2556
5878,2423,2561
5890,2412,2568
5901,2416,2575
5913,2418,2568
5925,2408,2562
5937,2389,2567
5949,2400,2596
5961,2398,2577
5972,2381,2598
5984,2391,2590
5996,2415,2603
6008,2452,2600
6020,2490,2592
6032,2552,2590
6043,2597,2598
6055,2618,2598
6067,2607,2583
6079,2622,2589
6091,2587,2582
6102,2541,2586
6114,2517,2584
6126,2474,2584
6138,2437,2586
6150,2416,2564
6162,2410,2557
6173,2381,2557
6185,2392,2569
6197,2393,2579
6209,2401,2614
6221,2392,2598
6233,2407,2601
6244,2398,2587
6256,2395,2591
6268,2399,2591
6280,2404,2616
6292,2401,2605
6304,2409,2610
6315,2415,2611
6327,2423,2612
6339,2418,2611
6351,2419,2582
6363,2432,2569
6375,2412,2564
6386,2398,2553
6398,2405,2546
6410,2404,2553
6422,2400,2578
6434,2402,2577
6446,2401,2580
6457,2405,2569
6469,2402,2560
6481,2399,2566
6493,2405,2577
6505,2389,2593
6516,2376,2582
6528,2382,2581
6540,2391,2557
6552,2395,2558
6564,2407,2565
6576,2404,2560
6587,2398,2571
6599,2407,2598
6611,2407,2583
6623,2398,2592
6635,2400,2587
6647,2394,2597
6658,2400,2603
6670,2394,2576
6682,2404,2585
6694,2413,2583
6706,2409,2605
6718,2433,2584
6729,2475,2581
6741,2530,2588
6753,2557,2576
6765,2611,2577
6777,2649,2582
6789,2651,2572
6800,2643,2582
6812,2615,2578
6824,2566,2586
6836,2524,2573
6848,2490,2578
6859,2467,2587
6871,2425,2566
6883,2411,2566
6895,2411,2591
6907,2396,2576
6919,2402,2570
6930,2408,2552
6942,2403,2553
6954,2405,2555
6966,2395,2563
6978,2401,2573
6990,2400,2578
7001,2385,2578
7013,2396,2587
7025,2405,2598
7037,2408,2598
7049,2422,2595
7061,2435,2575
7072,2422,2599
7084,2428,2581
7096,2416,2583
7108,2406,2575
7120,2400,2568
7132,2392,2582
7143,2418,2578
7155,2410,2552
7167,2414,2558
7179,2421,2572
7191,2418,2584
7203,2416,2596
7214,2424,2595
7226,2427,2613
7238,2417,2616
7250,2406,2601
7262,2403,2621
7273,2393,2610
7285,2396,2601
7297,2393,2594
7309,2391,2596
7321,2391,2598
7333,2393,2581
7344,2400,2566
7356,2410,2576
7368,2407,2574
7380,2418,2550
7392,2421,2560
7404,2399,2559
7415,2398,2580
7427,2408,2582
7439,2401,2587
7451,2417,2599
7463,2462,2593
7475,2501,2614
7486,2550,2585
7498,2593,2597
7510,2626,2598
7522,2644,2610
7534,2641,2602
7546,2623,2598
7557,2583,2608
7569,2536,2609
7581,2502,2585
7593,2479,2598
7605,2441,2569
7617,2422,2569
7628,2414,2578
7640,2411,2589
7652,2419,2599
7664,2420,2598
7676,2422,2620
7688,2416,2623
7699,2425,2609
7711,2423,2631
7723,2417,2618
7735,2420,2608
7747,2409,2618
7758,2418,2602
7770,2415,2587
7782,2419,2598
7794,2435,2596
7806,2441,2569
7818,2450,2579
7829,2457,2589
7841,2456,2614
7853,2437,2601
7865,2445,2586
7877,2443,2599
7889,2434,2603
7900,2418,2631
7912,2426,2624
7924,2427,2646
7936,2428,2627
7948,2418,2607
7960,2430,2605
7971,2408,2601
7983,2413,2590
7995,2427,2604
8007,2410,2612
8019,2424,2614
8031,2417,2634
8042,2423,2615
8054,2437,2621
8066,2429,2627
8078,2445,2617
8090,2432,2612
8101,2432,2591
8113,2431,2613
8125,2437,2587
8137,2433,2587
8149,2432,2584
8161,2448,2587
8172,2469,2602
8184,2497,2611
8196,2538,2628
8208,2594,2625
8220,2614,2603
8232,2617,2614
8243,2627,2596
8255,2605,2595
8267,2576,2600
8279,2531,2599
8291,2502,2600
8303,2476,2592
8314,2460,2577
8326,2448,2591
8338,2426,2577
8350,2428,2572
8362,2422,2577
8374,2414,2568
8385,2400,2568
8397,2402,2577
8409,2400,2570
8421,2408,2550
8433,2404,2546
8445,2418,2562
8456,2417,2578
8468,2423,2587
8480,2438,2583
8492,2440,2585
8504,2437,2580
8516,2436,2582
8527,2445,2586
8539,2426,2576
8551,2421,2555
8563,2433,2557
8575,2410,2565
8586,2403,2544
8598,2401,2530
8610,2391,2549
8622,2384,2541
8634,2386,2547
8646,2400,2552
8657,2394,2578
8669,2400,2565
8681,2409,2589
8693,2420,2571
8705,2425,2578
8717,2418,2562
8728,2431,2571
8740,2420,2565
8752,2423,2564
8764,2426,2564
8776,2422,2597
8788,2408,2584
8799,2411,2593
8811,2412,2581
8823,2408,2593
8835,2432,2593
8847,2471,2587
8859,2515,2601
8870,2546,2614
8882,2592,2608
8894,2619,2601
8906,2606,2611
8918,2609,2595
8929,2588,2569
8941,2555,2567
8953,2512,2557
8965,2477,2563
8977,2444,2577
8989,2425,2559
9000,2407,2569
9012,2405,2560
9024,2404,2586
9036,2405,2589
9048,2408,2611
9060,2411,2616
9071,2416,2613
9083,2400,2605
9095,2419,2593
9107,2414,2583
9119,2415,2567
9131,2414,2574
9142,2429,2565
9154,2436,2575
9166,2433,2583
9178,2448,2592
9190,2448,2590
9202,2452,2606
9213,2446,2603
9225,2447,2610
9237,2438,2591
9249,2427,2600
9261,2433,2599
9273,2418,2591
9284,2412,2582
9296,2404,2582
9308,2421,2591
9320,2426,2594
9332,2434,2592
9344,2442,2591
9355,2442,2596
9367,2451,2617
9379,2457,2600
9391,2458,2621
9403,2461,2629
9414,2442,2615
9426,2451,2602
9438,2438,2598
9450,2433,2592
9462,2440,2604
9474,2440,2607
9485,2428,2613
9497,2433,2595
9509,2442,2603
9521,2446,2596
9533,2488,2584
9545,2523,2591
9556,2557,2599
9568,2609,2609
9580,2636,2604
9592,2645,2614
9604,2621,2599
9616,2603,2601
9627,2566,2589
9639,2538,2577
9651,2502,2586
9663,2475,2587
9675,2461,2582
9687,2441,2596
9698,2430,2584
9710,2438,2571
9722,2428,2573
9734,2435,2575
9746,2446,2570
9758,2442,2592
9769,2422,2588
9781,2432,2604
9793,2452,2607
9805,2452,2597
9817,2453,2589
9829,2474,2601
9840,2471,2615
9852,2464,2611
9864,2478,2607
9876,2468,2608
9888,2456,2602
9899,2454,2600
9911,2456,2605
9923,2448,2595
9935,2437,2583
9947,2442,2589
9959,2437,2598
9970,2434,2601
9982,2445,2601
9994,2448,2594
