timestamp_ms,ppg1,ppg2
0,3598,3736
12,3583,3698
24,3570,3660
36,3557,3633
48,3549,3602
59,3530,3564
71,3508,3533
83,3489,3506
95,3476,3481
107,3451,3450
118,3427,3427
130,3396,3394
142,3369,3362
154,3307,3328
166,3276,3284
178,3232,3249
189,3210,3218
201,3197,3197
213,3186,3167
225,3199,3155
237,3183,3149
248,3184,3130
260,3183,3111
272,3182,3115
284,3175,3112
296,3158,3107
307,3137,3096
319,3134,3091
331,3118,3070
343,3115,3057
355,3121,3047
367,3105,3027
378,3109,3011
390,3108,3005
402,3115,2998
414,3112,2988
426,3107,2981
437,3106,2966
449,3095,2969
461,3071,2965
473,3055,2977
485,3020,2977
497,2993,2984
508,2984,2988
520,2983,2980
532,2987,2975
544,2986,2982
556,2977,2988
568,2984,2985
579,2988,2984
591,3015,2984
603,3021,2982
615,3034,2972
627,3047,2979
638,3052,2980
650,3055,2983
662,3046,2963
674,3031,2959
686,3027,2952
698,3022,2951
709,3002,2942
721,2973,2948
733,2962,2942
745,2948,2938
757,2951,2946
768,2958,2970
780,2985,2988
792,3051,3036
804,3112,3089
816,3200,3168
828,3274,3281
839,3359,3398
851,3433,3500
863,3499,3592
875,3561,3674
887,3607,3736
898,3643,3768
910,3683,3770
922,3699,3763
934,3694,3729
946,3700,3704
958,3688,3671
969,3669,3629
981,3618,3573
993,3580,3540
1005,3532,3513
1017,3488,3481
1028,3439,3442
1040,3373,3410
1052,3336,3379
1064,3289,3342
1076,3264,3305
1088,3246,3269
1099,3234,3261
1111,3226,3224
1123,3215,3197
1135,3211,3186
1147,3199,3171
1159,3208,3169
1170,3215,3161
1182,3219,3145
1194,3215,3138
1206,3205,3129
1218,3188,3118
1229,3188,3117
1241,3172,3092
1253,3150,3084
1265,3132,3057
1277,3121,3045
1289,3105,3040
1300,3103,3012
1312,3103,3002
1324,3117,2996
1336,3122,2995
1348,3119,2979
1360,3116,2971
1371,3115,2971
1383,3117,2974
1395,3108,2976
1407,3106,2977
1419,3098,2976
1430,3080,2982
1442,3061,2987
1454,3037,2980
1466,3017,2986
1478,3004,2978
1490,2974,2975
1501,2959,2966
1513,2944,2959
1525,2950,2952
1537,2960,2946
1549,2968,2947
1560,2983,2953
1572,2992,2951
1584,3014,2970
1596,3021,2978
1608,3023,2983
1620,3033,2994
1631,3023,2994
1643,3023,2998
1655,3017,2987
1667,3018,2985
1679,3024,2985
1691,3020,3010
1702,3043,3045
1714,3072,3095
1726,3118,3173
1738,3202,3268
1750,3292,3379
1761,3381,3492
1773,3471,3604
1785,3541,3692
1797,3612,3770
1809,3659,3829
1821,3694,3848
1832,3715,3854
1844,3720,3839
1856,3710,3794
1868,3687,3756
1880,3663,3710
1892,3640,3666
1903,3611,3629
1915,3558,3585
1927,3513,3560
1939,3464,3532
1951,3419,3505
1962,3373,3467
1974,3340,3442
1986,3295,3401
1998,3270,3349
2010,3245,3296
2022,3249,3260
2033,3236,3225
2045,3237,3211
2057,3245,3185
2069,3262,3170
2081,3275,3164
2093,3272,3158
2104,3266,3152
2116,3253,3137
2128,3246,3133
2140,3223,3123
2152,3211,3108
2163,3183,3095
2175,3165,3098
2187,3152,3094
2199,3130,3083
2211,3126,3061
2223,3112,3044
2234,3103,3027
2246,3096,3006
2258,3095,2989
2270,3086,2985
2282,3090,2987
2294,3089,2978
2305,3082,2983
2317,3070,2975
2329,3059,2969
2341,3056,2977
2353,3059,2980
2365,3071,2995
2376,3063,2983
2388,3067,2992
2400,3067,2988
2412,3056,2982
2424,3045,2973
2435,3019,2960
2447,2996,2964
2459,2995,2958
2471,2982,2957
2483,2967,2962
2495,2971,2974
2506,2960,2974
2518,2961,2978
2530,2965,2971
2542,2967,2984
2554,2968,2982
2565,2969,2988
2577,2962,2981
2589,2965,2987
2601,2960,2991
2613,2976,2988
2625,2968,3003
2636,2972,3041
2648,2990,3072
2660,3036,3151
2672,3098,3228
2684,3168,3323
2696,3269,3434
2707,3366,3557
2719,3468,3660
2731,3552,3750
2743,3628,3828
2755,3680,3877
2767,3703,3900
2778,3707,3904
2790,3720,3900
2802,3711,3872
2814,3686,3829
2826,3669,3769
2838,3655,3711
2849,3621,3649
2861,3602,3604
2873,3573,3561
2885,3566,3540
2897,3554,3512
2908,3526,3485
2920,3478,3461
2932,3434,3437
2944,3386,3405
2956,3352,3374
2968,3307,3345
2979,3257,3288
2991,3230,3259
3003,3208,3228
3015,3205,3189
3027,3193,3168
3039,3196,3160
3050,3215,3157
3062,3211,3153
3074,3224,3149
3086,3213,3133
3098,3206,3135
3110,3194,3136
3121,3178,3121
3133,3162,3113
3145,3161,3103
3157,3147,3088
3169,3122,3070
3180,3105,3061
3192,3109,3049
3204,3110,3036
3216,3121,3021
3228,3093,3003
3240,3082,2990
3251,3075,2973
3263,3073,2962
3275,3053,2957
3287,3041,2949
3299,3054,2954
3311,3063,2957
3322,3075,2959
3334,3090,2964
3346,3081,2981
3358,3078,2979
3370,3066,2982
3382,3049,2981
3393,3039,2990
3405,3020,2988
3417,2999,2991
3429,2999,2998
3441,2988,3008
3453,2984,3004
3464,2986,2999
3476,2983,2995
3488,2987,2989
3500,2992,2995
3512,2984,2995
3523,2972,2984
3535,2970,2987
3547,2965,3014
3559,2985,3045
3571,3034,3112
3583,3104,3190
3594,3198,3291
3606,3298,3421
3618,3397,3542
3630,3494,3662
3642,3585,3756
3654,3649,3823
3665,3707,3870
3677,3740,3898
3689,3749,3908
3701,3720,3897
3713,3701,3863
3725,3664,3819
3736,3646,3773
3748,3622,3722
3760,3605,3676
3772,3605,3634
3784,3601,3602
3796,3576,3565
3807,3553,3533
3819,3515,3494
3831,3474,3468
3843,3437,3428
3855,3410,3392
3867,3377,3340
3878,3351,3295
3890,3317,3254
3902,3307,3211
3914,3268,3181
3926,3228,3175
3937,3203,3154
3949,3187,3136
3961,3178,3134
3973,3154,3132
3985,3156,3120
3997,3158,3103
4008,3164,3088
4020,3170,3074
4032,3164,3056
4044,3156,3033
4056,3143,3034
4068,3127,3009
4079,3133,3014
4091,3122,3002
4103,3133,3000
4115,3129,2995
4127,3119,2986
4138,3104,2984
4150,3093,2983
4162,3088,2977
4174,3070,2978
4186,3060,2991
4198,3049,3004
4209,3045,3009
4221,3029,3016
4233,3031,3023
4245,3027,3021
4257,3024,3018
4269,3016,3021
4280,2996,3014
4292,2961,3008
4304,2940,3012
4316,2929,3005
4328,2934,2995
4340,2941,2991
4351,2961,2995
4363,2981,2997
4375,3002,3004
4387,3029,3001
4399,3045,2991
4411,3050,2983
4422,3042,2991
4434,3032,2989
4446,3028,2993
4458,3041,3011
4470,3066,3031
4482,3106,3091
4493,3152,3163
4505,3213,3264
4517,3279,3375
4529,3360,3493
4541,3440,3618
4552,3532,3734
4564,3594,3826
4576,3650,3893
4588,3676,3929
4600,3693,3939
4612,3695,3924
4623,3691,3889
4635,3682,3850
4647,3653,3804
4659,3644,3748
4671,3620,3692
4683,3601,3646
4694,3585,3609
4706,3567,3574
4718,3543,3527
4730,3532,3493
4742,3497,3455
4754,3457,3393
4765,3425,3351
4777,3393,3298
4789,3364,3266
4801,3300,3231
4813,3251,3199
4824,3216,3172
4836,3200,3156
4848,3182,3160
4860,3191,3148
4872,3201,3133
4884,3211,3130
4895,3209,3118
4907,3214,3111
4919,3206,3100
4931,3212,3096
4943,3218,3085
4955,3206,3076
4966,3198,3065
4978,3188,3047
4990,3190,3036
5002,3183,3035
5014,3180,3019
5025,3178,3017
5037,3165,3000
5049,3142,2989
5061,3129,2988
5073,3110,2978
5085,3088,2973
5096,3048,2972
5108,3031,2970
5120,3014,2967
5132,3010,2965
5144,3013,2971
5156,3016,2976
5167,3016,2991
5179,3012,3002
5191,3015,3014
5203,3024,3027
5215,3038,3031
5226,3049,3029
5238,3032,3023
5250,3016,3034
5262,3000,3017
5274,2978,3024
5286,2955,3016
5297,2961,3011
5309,2959,3026
5321,2975,3053
5333,3024,3105
5345,3086,3179
5357,3163,3277
5368,3228,3395
5380,3319,3525
5392,3399,3638
5404,3473,3754
5416,3552,3849
5428,3619,3913
5439,3661,3936
5451,3710,3931
5463,3724,3909
5475,3734,3861
5487,3725,3805
5498,3688,3743
5510,3640,3674
5522,3575,3622
5534,3509,3563
5546,3451,3515
5558,3392,3472
5569,3333,3450
5581,3296,3419
5593,3241,3395
5605,3190,3335
5617,3166,3295
5629,3161,3261
5640,3163,3213
5652,3174,3190
5664,3188,3173
5676,3204,3156
5688,3214,3147
5699,3226,3148
5711,3226,3145
5723,3246,3133
5735,3242,3129
5747,3234,3096
5759,3224,3094
5770,3193,3079
5782,3157,3068
5794,3128,3055
5806,3118,3054
5818,3117,3050
5830,3115,3042
5841,3117,3046
5853,3106,3031
5865,3120,3039
5877,3132,3034
5889,3137,3034
5901,3129,3043
5912,3122,3040
5924,3114,3035
5936,3096,3028
5948,3091,3017
5960,3086,3006
5971,3082,3010
5983,3079,3009
5995,3071,3019
6007,3067,3021
6019,3061,3027
6031,3061,3026
6042,3051,3022
6054,3042,3027
6066,3025,3013
6078,3025,3022
6090,3012,3017
6102,3006,3021
6113,3000,3014
6125,2984,3011
6137,2981,3007
6149,2974,3010
6161,2960,3011
6172,2972,3015
6184,2976,3030
6196,2994,3081
6208,3032,3153
6220,3099,3248
6232,3170,3390
6243,3262,3527
6255,3347,3671
6267,3431,3793
6279,3507,3900
6291,3582,3975
6303,3635,4013
6314,3673,4021
6326,3693,4006
6338,3694,3976
6350,3688,3935
6362,3666,3875
6374,3640,3810
6385,3638,3738
6397,3619,3682
6409,3589,3632
6421,3558,3580
6433,3540,3550
6445,3505,3515
6456,3486,3480
6468,3432,3444
6480,3379,3404
6492,3338,3372
6504,3285,3317
6515,3262,3300
6527,3225,3262
6539,3209,3234
6551,3200,3201
6563,3179,3176
6575,3180,3159
6586,3167,3142
6598,3173,3140
6610,3177,3136
6622,3188,3127
6634,3186,3119
6646,3188,3106
6657,3184,3087
6669,3190,3068
6681,3188,3054
6693,3171,3038
6705,3176,3039
6716,3163,3010
6728,3140,3009
6740,3128,3008
6752,3103,2999
6764,3080,2999
6776,3059,2993
6787,3025,2993
6799,3017,2993
6811,3017,2998
6823,3016,2996
6835,3010,3000
6847,3002,3007
6858,3002,3002
6870,3004,3012
6882,3020,3016
6894,3022,3020
6906,3022,3015
6918,3025,3023
6929,3032,3023
6941,3046,3016
6953,3056,3014
6965,3055,2998
6977,3066,2996
6989,3064,3005
7000,3070,2995
7012,3064,2989
7024,3045,2986
7036,3021,2981
7048,3009,2980
7059,3004,2993
7071,3043,3041
7083,3076,3094
7095,3156,3188
7107,3229,3302
7119,3311,3424
7130,3393,3545
7142,3469,3666
7154,3539,3773
7166,3581,3852
7178,3608,3884
7189,3632,3918
7201,3641,3927
7213,3643,3892
7225,3640,3854
7237,3652,3815
7249,3671,3775
7260,3664,3727
7272,3655,3688
7284,3640,3655
7296,3608,3620
7308,3579,3587
7320,3557,3570
7331,3527,3535
7343,3479,3504
7355,3442,3475
7367,3376,3408
7379,3325,3364
7391,3281,3304
7402,3243,3261
7414,3227,3226
7426,3215,3192
7438,3197,3171
7450,3190,3161
7461,3174,3149
7473,3170,3143
7485,3178,3142
7497,3181,3131
7509,3173,3118
7521,3174,3099
7532,3173,3084
7544,3175,3067
7556,3176,3057
7568,3172,3046
7580,3178,3041
7592,3170,3026
7603,3173,3023
7615,3161,3021
7627,3135,3015
7639,3105,3018
7651,3088,3028
7663,3068,3026
7674,3050,3019
7686,3044,3022
7698,3023,3019
7710,3008,3018
7722,3006,2995
7733,3010,2993
7745,3024,2978
7757,3041,2980
7769,3065,2967
7781,3049,2966
7793,3034,2977
7804,3016,2967
7816,3015,2973
7828,3035,2976
7840,3049,2976
7852,3058,2972
7864,3072,2985
7875,3073,2989
7887,3073,2992
7899,3057,2985
7911,3063,2986
7923,3058,2989
7935,3031,2971
7946,3025,2974
7958,3020,2993
7970,3024,3039
7982,3059,3106
7994,3107,3192
8006,3183,3296
8017,3265,3415
8029,3342,3528
8041,3421,3655
8053,3496,3761
8065,3555,3813
8076,3589,3864
8088,3607,3888
8100,3609,3879
8112,3611,3853
8124,3611,3807
8136,3621,3769
8147,3618,3729
8159,3616,3684
8171,3612,3643
8183,3615,3599
8195,3600,3573
8206,3584,3540
8218,3561,3513
8230,3537,3478
8242,3501,3431
8254,3449,3378
8266,3399,3319
8277,3341,3273
8289,3294,3240
8301,3251,3216
8313,3227,3186
8325,3210,3170
8337,3189,3155
8348,3162,3148
8360,3135,3156
8372,3108,3140
8384,3108,3133
8396,3115,3119
8408,3135,3108
8419,3141,3095
8431,3150,3093
8443,3144,3074
8455,3150,3058
8467,3139,3056
8478,3129,3046
8490,3131,3023
8502,3113,3010
8514,3108,2990
8526,3101,2980
8538,3093,2977
8549,3083,2965
8561,3077,2966
8573,3076,2964
8585,3072,2952
8597,3068,2957
8609,3065,2959
8620,3047,2972
8632,3034,2976
8644,3016,2983
8656,3009,2988
8668,3003,2980
8679,2993,2991
8691,3006,2985
8703,3017,2990
8715,3015,2973
8727,3011,2992
8739,3005,2998
8750,2977,3008
8762,2969,3003
8774,2963,3016
8786,2976,3008
8798,2973,3011
8810,2981,2999
8821,2991,2985
8833,3000,2972
8845,3000,2970
8857,3002,2959
8869,3019,2983
8880,3036,3025
8892,3081,3081
8904,3149,3175
8916,3211,3275
8928,3282,3378
8940,3349,3490
8951,3398,3594
8963,3449,3675
8975,3488,3742
8987,3524,3786
8999,3545,3791
9011,3560,3789
9022,3570,3757
9034,3570,3719
9046,3569,3690
9058,3550,3640
9070,3538,3595
9082,3520,3564
9093,3511,3531
9105,3499,3509
9117,3493,3482
9129,3478,3465
9141,3446,3430
9152,3430,3382
9164,3409,3343
9176,3358,3298
9188,3307,3259
9200,3264,3238
9212,3230,3199
9223,3202,3173
9235,3161,3137
9247,3135,3122
9259,3121,3097
9271,3112,3077
9283,3106,3063
9294,3110,3061
9306,3111,3040
9318,3111,3040
9330,3106,3028
9342,3119,3022
9354,3118,3017
9365,3131,3005
9377,3132,3006
9389,3125,2998
9401,3126,2996
9413,3100,2989
9425,3079,2981
9436,3056,2979
9448,3065,2975
9460,3061,2963
9472,3061,2968
9484,3058,2965
9495,3049,2950
9507,3046,2949
9519,3037,2928
9531,3033,2928
9543,3045,2924
9555,3052,2924
9566,3051,2927
9578,3044,2929
9590,3042,2938
9602,3037,2941
9614,3018,2939
9626,2997,2944
9637,2979,2944
9649,2957,2945
9661,2960,2941
9673,2955,2940
9685,2977,2933
9696,2988,2930
9708,3012,2942
9720,3024,2944
9732,3028,2949
9744,3019,2941
9756,2991,2933
9767,2971,2957
9779,2951,2962
9791,2962,2973
9803,2995,3034
9815,3051,3095
9827,3115,3171
9838,3189,3266
9850,3291,3384
9862,3373,3493
9874,3448,3589
9886,3499,3677
9897,3537,3725
9909,3563,3751
9921,3566,3741
9933,3572,3736
9945,3563,3704
9957,3562,3662
9968,3550,3620
9980,3545,3565
9992,3529,3535
10004,3526,3497
10016,3517,3467
10028,3526,3445
10039,3502,3411
10051,3473,3388
10063,3439,3355
10075,3385,3328
10087,3344,3318
10099,3296,3284
10110,3254,3251
10122,3211,3215
10134,3166,3177
10146,3140,3161
10158,3117,3127
10170,3115,3127
10181,3123,3116
10193,3124,3109
10205,3124,3096
10217,3131,3081
10229,3130,3073
10241,3124,3046
10252,3116,3039
10264,3101,3029
10276,3094,3003
10288,3085,2993
10300,3073,2986
10311,3060,2982
10323,3069,2990
10335,3067,2971
10347,3077,2971
10359,3074,2964
10371,3065,2958
10382,3050,2957
10394,3051,2962
10406,3051,2969
10418,3048,2973
10430,3039,2984
10442,3028,2981
10453,3014,2978
10465,3005,2972
10477,2987,2962
10489,2957,2957
10501,2932,2947
10513,2909,2943
10524,2900,2953
10536,2901,2952
10548,2911,2948
10560,2944,2960
10572,2961,2965
10584,2978,2965
10595,2983,2975
10607,2980,2973
10619,2989,2971
10631,2986,2971
10643,2993,2976
10655,2998,2964
10666,3002,2958
10678,3022,2946
10690,3033,2954
10702,3037,2957
10714,3040,2972
10726,3029,2977
10737,3031,3016
10749,3046,3065
10761,3078,3139
10773,3132,3222
10785,3187,3312
10796,3253,3414
10808,3313,3500
10820,3384,3592
10832,3437,3654
10844,3497,3690
10856,3547,3699
10867,3580,3695
10879,3594,3681
10891,3594,3645
10903,3586,3611
10915,3582,3560
10927,3576,3506
10938,3558,3468
10950,3532,3435
10962,3514,3396
10974,3474,3360
10986,3420,3340
10998,3377,3313
11009,3313,3288
11021,3281,3264
11033,3247,3238
11045,3208,3218
11057,3181,3197
11069,3156,3176
11080,3127,3173
11092,3116,3165
11104,3124,3157
11116,3138,3158
11128,3158,3145
11140,3174,3140
11151,3199,3133
11163,3220,3124
11175,3247,3122
11187,3256,3119
11199,3247,3097
11211,3235,3085
11222,3216,3071
11234,3191,3067
11246,3156,3053
11258,3125,3046
11270,3091,3037
11282,3076,3033
11293,3036,3018
11305,3015,3019
11317,2995,3014
11329,2984,3011
11341,2990,3009
11352,2997,2990
11364,2994,2986
11376,3001,2971
11388,3003,2968
11400,3011,2967
11412,3011,2978
11424,3004,2978
11435,3006,2985
11447,3011,2985
11459,3016,2979
11471,3030,2975
11483,3017,2972
11494,3016,2975
11506,3006,2963
11518,3008,2965
11530,3004,2966
11542,3006,2981
11554,3012,2978
11565,3002,2972
11577,2996,2976
11589,2995,2992
11601,2990,3008
11613,3015,3022
11625,3034,3069
11636,3065,3128
11648,3115,3221
11660,3175,3307
11672,3270,3400
11684,3368,3485
11696,3447,3557
11707,3524,3608
11719,3595,3641
11731,3659,3654
11743,3673,3651
11755,3668,3633
11767,3640,3611
11778,3589,3575
11790,3544,3539
11802,3487,3503
11814,3437,3457
11826,3383,3425
11837,3323,3395
11849,3285,3385
11861,3246,3361
11873,3226,3335
11885,3210,3296
11897,3203,3262
11908,3183,3220
11920,3194,3191
11932,3188,3163
11944,3177,3147
11956,3172,3143
11968,3181,3135
11979,3172,3144
11991,3169,3152
12003,3182,3146
12015,3171,3129
12027,3156,3115
12039,3154,3104
12050,3145,3084
12062,3133,3068
12074,3132,3056
12086,3137,3050
12098,3131,3035
12109,3121,3035
12121,3092,3034
12133,3073,3025
12145,3033,3011
12157,3010,3000
12169,2980,2985
12180,2970,2978
12192,2965,2973
12204,2969,2970
12216,2958,2980
12228,2957,2981
12240,2950,2988
12251,2963,3006
12263,2982,3003
12275,3000,3005
12287,3026,3004
12299,3034,3011
12311,3033,3009
12322,3018,3003
12334,3017,2998
12346,3020,2995
12358,3022,2990
12370,3025,2990
12381,3016,2999
12393,3022,2995
12405,3024,2988
12417,3009,2978
12429,3014,2975
12441,3005,2968
12452,3005,2968
12464,3003,2975
12476,3001,2981
12488,3011,3002
12500,3033,3034
12512,3060,3092
12523,3124,3174
12535,3195,3257
12547,3277,3355
12559,3366,3457
12571,3438,3552
12583,3500,3633
12594,3549,3690
12606,3587,3723
12618,3610,3746
12630,3617,3742
12642,3602,3737
12654,3571,3712
12665,3539,3687
12677,3499,3641
12689,3468,3617
12701,3452,3570
12713,3440,3533
12724,3438,3506
12736,3435,3478
12748,3436,3446
12760,3436,3427
12772,3428,3415
12784,3404,3382
12795,3369,3344
12807,3330,3295
12819,3296,3248
12831,3265,3211
12843,3225,3181
12855,3189,3165
12866,3174,3165
12878,3143,3143
12890,3140,3140
12902,3122,3122
12914,3126,3130
12926,3119,3119
12937,3118,3113
12949,3115,3087
12961,3107,3077
12973,3106,3069
12985,3113,3056
12997,3110,3045
13008,3102,3038
13020,3088,3026
13032,3087,3023
13044,3091,3023
13056,3084,3016
13068,3081,3004
13079,3078,3015
13091,3079,3003
13103,3072,3014
13115,3070,3017
13127,3058,3011
13139,3033,3021
13150,3017,3009
13162,3015,3014
13174,3008,3002
13186,3005,3002
13198,2991,2990
13209,2987,2979
13221,2985,2978
13233,2984,2973
13245,2989,2979
13257,3004,2972
13269,3011,2965
13280,3012,2976
13292,3008,2978
13304,2998,2984
13316,3002,2998
13328,2996,2995
13340,2997,2994
13351,2988,2981
13363,2989,2987
13375,2992,2984
13387,2992,3006
13399,3009,3030
13411,3046,3080
13422,3108,3151
13434,3183,3240
13446,3279,3351
13458,3363,3452
13470,3426,3537
13482,3482,3623
13493,3523,3703
13505,3549,3771
13517,3551,3805
13529,3548,3799
13541,3540,3786
13553,3542,3771
13564,3520,3731
13576,3502,3692
13588,3493,3656
13600,3495,3612
13612,3499,3585
13623,3506,3571
13635,3507,3548
13647,3503,3522
13659,3487,3504
13671,3466,3473
13683,3434,3453
13694,3412,3420
13706,3382,3383
13718,3351,3352
13730,3321,3311
13742,3297,3277
13754,3274,3258
13765,3229,3236
13777,3189,3212
13789,3166,3192
13801,3146,3181
13813,3129,3168
13825,3117,3170
13836,3113,3151
13848,3114,3139
13860,3130,3128
13872,3131,3096
13884,3124,3089
13896,3127,3069
13907,3125,3044
13919,3129,3022
13931,3133,3018
13943,3131,3004
13955,3124,2999
13966,3113,3000
13978,3103,3010
13990,3092,3008
14002,3075,3009
14014,3084,3016
14026,3089,3016
14037,3081,3008
14049,3067,3035
14061,3053,3028
14073,3056,3025
14085,3038,3027
14097,3023,3019
14108,3018,3019
14120,3015,3030
14132,3018,3034
14144,3030,3028
14156,3035,3024
14167,3027,3020
14179,3025,3023
14191,3020,3034
14203,3003,3033
14215,3004,3031
14227,3014,3022
14238,3027,3019
14250,3042,3013
14262,3057,3010
14274,3063,3007
14286,3074,3011
14298,3095,3046
14309,3123,3078
14321,3166,3149
14333,3227,3234
14345,3285,3334
14357,3335,3439
14369,3401,3539
14380,3436,3632
14392,3467,3713
14404,3489,3765
14416,3508,3792
14428,3523,3815
14440,3525,3816
14451,3528,3787
14463,3528,3750
14475,3541,3710
14487,3544,3661
14499,3554,3613
14510,3557,3588
14522,3556,3557
14534,3557,3536
14546,3553,3523
14558,3526,3507
14570,3494,3471
14581,3455,3444
14593,3411,3419
14605,3360,3384
14617,3302,3358
14629,3267,3328
14641,3238,3287
14652,3213,3272
14664,3193,3257
14676,3166,3242
14688,3165,3236
14700,3175,3222
14712,3194,3206
14723,3204,3185
14735,3190,3167
14747,3170,3144
14759,3171,3123
14771,3176,3110
14783,3180,3100
14794,3189,3092
14806,3194,3083
14818,3179,3057
14830,3155,3048
14842,3137,3041
14854,3101,3033
14865,3090,3029
14877,3072,3021
14889,3076,3009
14901,3062,3017
14913,3042,2998
14925,3025,2997
14936,3028,2988
14948,3037,2987
14960,3035,2994
14972,3048,3008
14984,3067,3000
14996,3087,3004
15007,3105,3010
15019,3117,3025
15031,3118,3028
15043,3111,3034
15055,3097,3030
15067,3097,3025
15078,3100,3014
15090,3092,3020
15102,3075,3022
15114,3045,3027
15126,3016,3020
15138,2984,3038
15149,2974,3040
15161,2971,3038
15173,2976,3033
15185,2974,3031
15197,3000,3055
15209,3040,3087
15220,3095,3149
15232,3166,3238
15244,3233,3331
15256,3302,3450
15268,3363,3576
15280,3434,3677
15291,3496,3768
15303,3547,3836
15315,3601,3889
15327,3631,3905
15339,3646,3912
15350,3649,3895
15362,3653,3867
15374,3644,3820
15386,3618,3779
15398,3585,3743
15410,3560,3693
15421,3535,3655
15433,3525,3614
15445,3514,3575
15457,3489,3546
15469,3461,3512
15481,3432,3471
15492,3397,3426
15504,3353,3386
15516,3312,3346
15528,3279,3304
15540,3260,3278
15552,3237,3246
15563,3229,3228
15575,3218,3210
15587,3212,3196
15599,3185,3186
15611,3154,3179
15623,3149,3168
15634,3142,3171
15646,3152,3160
15658,3169,3148
15670,3177,3137
15682,3171,3124
15694,3189,3118
15705,3183,3118
15717,3177,3113
15729,3159,3103
15741,3144,3103
15753,3118,3087
15765,3106,3077
15776,3109,3069
15788,3100,3071
15800,3098,3060
15812,3092,3068
15824,3085,3074
15835,3079,3059
15847,3084,3059
15859,3103,3064
15871,3106,3068
15883,3105,3059
15895,3097,3056
15906,3079,3045
15918,3071,3043
15930,3066,3047
15942,3038,3046
15954,3023,3049
15966,3027,3035
15977,3034,3025
15989,3049,3018
16001,3052,2997
16013,3053,2979
16025,3050,2980
16037,3058,2987
16049,3060,2999
16060,3062,3011
16072,3058,3012
16084,3049,3038
16096,3052,3047
16108,3055,3059
16119,3079,3103
16131,3120,3149
16143,3159,3229
16155,3224,3322
16167,3308,3437
16179,3388,3546
16190,3470,3649
16202,3541,3749
16214,3600,3833
16226,3652,3899
16238,3682,3933
16250,3691,3940
16261,3684,3934
16273,3666,3895
16285,3641,3863
16297,3638,3822
16309,3606,3762
16321,3568,3707
16332,3543,3655
16344,3511,3610
16356,3491,3559
16368,3457,3518
16380,3427,3484
16392,3398,3448
16403,3366,3417
16415,3344,3377
16427,3315,3358
16439,3294,3322
16451,3272,3291
16463,3255,3266
16474,3255,3237
16486,3251,3235
16498,3253,3215
16510,3245,3195
16522,3254,3189
16534,3246,3169
16545,3238,3152
16557,3221,3142
16569,3212,3125
16581,3204,3112
16593,3205,3102
16605,3186,3095
16616,3165,3075
16628,3151,3076
16640,3150,3069
16652,3149,3064
16664,3143,3055
16676,3141,3045
16687,3136,3051
16699,3130,3050
16711,3106,3053
16723,3086,3052
16735,3071,3037
16747,3063,3039
16758,3062,3038
16770,3063,3033
16782,3063,3036
16794,3064,3033
16806,3075,3036
16818,3095,3025
16829,3111,3027
16841,3108,3028
16853,3123,3034
16865,3105,3026
16877,3100,3023
16889,3078,3026
16900,3066,3014
16912,3059,3011
16924,3052,3015
16936,3050,3006
16948,3052,3015
16960,3034,3010
16971,3039,3011
16983,3036,3008
16995,3030,2997
17007,3016,3000
17019,3009,3002
17031,3011,3015
17042,3037,3060
17054,3077,3116
17066,3119,3187
17078,3184,3284
17090,3258,3391
17102,3327,3507
17113,3417,3625
17125,3489,3722
17137,3558,3787
17149,3599,3838
17161,3632,3862
17173,3635,3849
17184,3626,3814
17196,3599,3759
17208,3556,3702
17220,3533,3646
17232,3510,3589
17244,3497,3528
17255,3478,3477
17267,3462,3458
17279,3434,3416
17291,3404,3398
17303,3385,3379
17315,3354,3359
17326,3332,3337
17338,3310,3299
17350,3285,3271
17362,3264,3237
17374,3241,3218
17386,3246,3203
17397,3240,3186
17409,3234,3178
17421,3242,3167
17433,3247,3169
17445,3229,3170
17457,3218,3170
17468,3209,3168
17480,3201,3169
17492,3204,3169
17504,3192,3161
17516,3183,3149
17528,3168,3133
17539,3165,3126
17551,3152,3110
17563,3131,3102
17575,3104,3092
17587,3089,3079
17598,3082,3066
17610,3088,3049
17622,3078,3044
17634,3100,3034
17646,3102,3021
17658,3087,3009
17670,3076,3009
17681,3076,3001
17693,3066,3001
17705,3068,3003
17717,3074,2999
17729,3069,3006
17741,3079,3013
17752,3060,3010
17764,3035,3006
17776,3024,3006
17788,3032,3004
17800,3024,2996
17812,3025,3002
17823,3014,2988
17835,3016,2993
17847,3013,2978
17859,3005,2988
17871,2997,2984
17882,2994,2980
17894,2984,2982
17906,2980,2987
17918,2978,2998
17930,3017,3034
17942,3075,3092
17953,3138,3170
17965,3222,3279
17977,3292,3382
17989,3362,3491
18001,3431,3599
18013,3490,3689
18024,3539,3756
18036,3561,3785
18048,3569,3795
18060,3577,3784
18072,3566,3745
18084,3550,3694
18095,3519,3631
18107,3496,3574
18119,3476,3527
18131,3476,3495
18143,3469,3458
18155,3462,3449
18166,3446,3411
18178,3428,3399
18190,3413,3359
18202,3393,3323
18214,3368,3287
18226,3348,3247
18237,3322,3224
18249,3294,3192
18261,3268,3176
18273,3225,3164
18285,3198,3161
18297,3160,3155
18308,3147,3148
18320,3138,3154
18332,3124,3153
18344,3119,3144
18356,3141,3155
18368,3135,3141
18379,3148,3142
18391,3146,3128
18403,3148,3135
18415,3151,3114
18427,3157,3089
18439,3155,3072
18450,3160,3044
18462,3158,3038
18474,3157,3029
18486,3151,3014
18498,3147,3002
18510,3134,3000
18521,3126,2984
18533,3116,3000
18545,3111,2994
18557,3093,2994
18569,3070,3009
18581,3050,3024
18592,3038,3028
18604,3025,3026
18616,3018,3026
18628,3013,3018
18640,3020,3017
18652,3008,3021
18663,3005,3020
18675,3017,3031
18687,3004,3021
18699,3001,3027
18711,2984,3013
18723,2973,2999
18734,2969,2990
18746,2966,2985
18758,2967,2978
18770,2992,2998
18782,3017,3029
18794,3043,3081
18805,3099,3159
18817,3181,3256
18829,3278,3353
18841,3362,3458
18853,3450,3547
18865,3509,3618
18876,3554,3676
18888,3592,3713
18900,3609,3717
18912,3625,3708
18924,3622,3690
18936,3626,3651
18947,3615,3608
18959,3601,3550
18971,3576,3505
18983,3542,3460
18995,3513,3423
19007,3473,3392
19018,3469,3367
19030,3422,3336
19042,3375,3306
19054,3332,3271
19066,3289,3245
19078,3259,3218
19089,3217,3189
19101,3184,3174
19113,3163,3145
19125,3151,3132
19137,3134,3121
19149,3116,3109
19160,3102,3108
19172,3111,3107
19184,3116,3093
19196,3136,3108
19208,3137,3088
19220,3151,3089
19231,3146,3080
19243,3146,3063
19255,3148,3056
19267,3140,3036
19279,3122,3022
19291,3127,3022
19302,3125,3015
19314,3124,3021
19326,3127,3009
19338,3124,3003
19350,3134,3012
19362,3119,3013
19373,3107,3000
19385,3083,2995
19397,3072,3000
19409,3075,2996
19421,3064,3015
19433,3050,3028
19444,3041,3018
19456,3029,3024
19468,3033,3028
19480,3025,3022
19492,3004,3017
19504,2995,3007
19515,2987,3000
19527,2982,3000
19539,2982,2996
19551,2984,2992
19563,3001,2984
19575,3019,2984
19586,3024,2982
19598,3011,2985
19610,2991,2978
19622,2960,2974
19634,2954,2993
19645,2986,3003
19657,3023,3038
19669,3081,3090
19681,3154,3163
19693,3227,3256
19705,3299,3358
19716,3368,3466
19728,3441,3574
19740,3493,3668
19752,3535,3732
19764,3577,3779
19776,3598,3797
19787,3599,3796
19799,3599,3769
19811,3570,3723
19823,3564,3691
19835,3569,3653
19847,3563,3617
19858,3581,3589
19870,3585,3551
19882,3590,3535
19894,3577,3498
19906,3561,3454
19918,3533,3418
19929,3517,3374
19941,3487,3336
19953,3441,3288
19965,3368,3247
19977,3302,3206
19989,3264,3178
20000,3229,3165
20012,3221,3145
20024,3211,3130
20036,3215,3121
20048,3212,3105
20060,3205,3099
20071,3200,3078
20083,3203,3070
20095,3194,3062
20107,3176,3046
20119,3167,3035
20131,3156,3034
20142,3135,3033
20154,3124,3036
20166,3108,3045
20178,3092,3045
20190,3079,3039
20202,3051,3031
20213,3055,3015
20225,3054,3004
20237,3049,2994
20249,3054,2988
20261,3047,2977
20273,3046,2973
20284,3052,2959
20296,3057,2967
20308,3062,2974
20320,3058,2984
20332,3058,2986
20344,3053,2995
20355,3054,3000
20367,3060,2999
20379,3037,3000
20391,3023,2997
20403,3026,2999
20415,3030,2989
20426,3024,3002
20438,3030,2992
20450,3033,2995
20462,3041,2992
20474,3023,2987
20486,3019,2996
20497,3017,2977
20509,3018,2981
20521,3018,2996
20533,3018,2994
20545,3006,3004
20557,2997,3008
20568,2991,3028
20580,3012,3053
20592,3044,3083
20604,3075,3124
20616,3131,3196
20628,3206,3280
20639,3303,3376
20651,3384,3479
20663,3460,3566
20675,3502,3653
20687,3515,3693
20698,3531,3721
20710,3556,3731
20722,3561,3737
20734,3567,3718
20746,3581,3694
20758,3615,3668
20769,3623,3608
20781,3644,3574
20793,3657,3537
20805,3665,3512
20817,3638,3501
20829,3621,3481
20840,3584,3458
20852,3547,3445
20864,3496,3418
20876,3462,3393
20888,3413,3347
20900,3379,3316
20911,3352,3273
20923,3323,3245
20935,3296,3205
20947,3262,3178
20959,3252,3163
20971,3240,3141
20982,3210,3136
20994,3189,3133
21006,3168,3130
21018,3160,3136
21030,3148,3132
21042,3134,3119
21053,3131,3120
21065,3120,3120
21077,3124,3110
21089,3114,3100
21101,3104,3086
21113,3101,3078
21124,3080,3074
21136,3081,3066
21148,3084,3072
21160,3087,3055
21172,3106,3054
21184,3107,3046
21195,3115,3029
21207,3118,3027
21219,3118,3029
21231,3109,3012
21243,3094,3010
21255,3085,3003
21266,3068,3000
21278,3061,2997
21290,3033,2983
21302,3013,2997
21314,3005,2996
21326,3004,2998
21337,3005,2995
21349,3014,3007
21361,3031,3015
21373,3046,3018
21385,3065,3008
21397,3064,3002
21408,3062,3001
21420,3074,2998
21432,3070,2994
21444,3059,2988
21456,3054,2983
21468,3037,2981
21479,3020,2970
21491,3023,2979
21503,3018,2966
21515,3020,2954
21527,3014,2963
21539,3019,2980
21550,3041,3025
21562,3072,3081
21574,3127,3157
21586,3206,3262
21598,3279,3354
21610,3371,3452
21621,3448,3546
21633,3511,3619
21645,3570,3667
21657,3596,3709
21669,3621,3718
21681,3635,3718
21692,3640,3711
21704,3620,3669
21716,3605,3635
21728,3603,3617
21740,3600,3597
21752,3597,3577
21763,3599,3555
21775,3587,3522
21787,3593,3515
21799,3578,3492
21811,3551,3477
21823,3520,3447
21834,3485,3408
21846,3454,3386
21858,3405,3340
21870,3371,3298
21882,3348,3269
21894,3299,3234
21905,3260,3215
21917,3228,3190
21929,3218,3183
21941,3200,3175
21953,3176,3168
21965,3162,3155
21976,3158,3159
21988,3171,3152
22000,3189,3144
22012,3192,3130
22024,3199,3132
22036,3198,3118
22047,3199,3102
22059,3201,3096
22071,3194,3088
22083,3193,3081
22095,3188,3085
22107,3171,3070
22118,3143,3064
22130,3118,3049
22142,3115,3045
22154,3122,3036
22166,3134,3035
22178,3123,3028
22189,3097,3018
22201,3078,3016
22213,3060,3017
22225,3036,3005
22237,3011,3010
22249,2995,3011
22260,2990,3003
22272,2996,3010
22284,3017,3011
22296,3019,3007
22308,3014,3002
22320,3013,3004
22331,3012,3006
22343,2998,3010
22355,3009,2985
22367,3012,2997
22379,3017,2993
22391,3014,3003
22402,3016,3011
22414,3024,3027
22426,3018,3019
22438,3015,3016
22450,3009,3009
22462,3017,3011
22473,3008,3002
22485,3016,3009
22497,3047,3027
22509,3085,3064
22521,3125,3122
22533,3172,3180
22544,3236,3264
22556,3299,3355
22568,3383,3459
22580,3442,3563
22592,3497,3633
22603,3548,3694
22615,3582,3728
22627,3612,3739
22639,3618,3731
22651,3625,3702
22663,3632,3663
22674,3630,3635
22686,3641,3609
22698,3645,3570
22710,3641,3549
22722,3621,3524
22734,3603,3488
22745,3581,3474
22757,3553,3446
22769,3510,3418
22781,3477,3385
22793,3436,3366
22805,3389,3337
22817,3322,3312
22828,3294,3287
22840,3258,3265
22852,3259,3235
22864,3241,3218
22876,3229,3207
22888,3216,3191
22899,3211,3174
22911,3212,3168
22923,3202,3148
22935,3193,3147
22947,3182,3131
22959,3171,3146
22970,3171,3137
22982,3162,3142
22994,3167,3146
23006,3162,3142
23018,3158,3126
23029,3157,3123
23041,3154,3107
23053,3139,3092
23065,3149,3089
23077,3139,3081
23089,3131,3066
23100,3132,3063
23112,3103,3059
23124,3093,3058
23136,3069,3041
23148,3033,3020
23160,3026,3016
23171,3030,3025
23183,3032,3013
23195,3033,3009
23207,3043,3019
23219,3048,3021
23231,3052,3013
23242,3048,3012
23254,3046,3023
23266,3039,3026
23278,3042,3038
23290,3038,3028
23302,3043,3035
23314,3035,3028
23325,3018,3034
23337,3009,3026
23349,2996,3024
23361,2966,3023
23373,2962,3022
23385,2949,3023
23396,2941,3022
23408,2959,3020
23420,2971,3020
23432,2974,3023
23444,2990,3027
23455,3010,3032
23467,3031,3048
23479,3085,3080
23491,3147,3140
23503,3214,3199
23515,3279,3296
23526,3349,3395
23538,3419,3484
23550,3467,3581
23562,3529,3641
23574,3592,3694
23586,3634,3736
23597,3648,3743
23609,3665,3732
23621,3648,3703
23633,3630,3674
23645,3614,3639
23657,3611,3601
23668,3605,3554
23680,3598,3525
23692,3589,3501
23704,3592,3489
23716,3571,3479
23728,3532,3450
23739,3485,3418
23751,3451,3400
23763,3400,3366
23775,3373,3332
23787,3333,3288
23799,3318,3264
23811,3289,3229
23822,3267,3209
23834,3247,3183
23846,3229,3176
23858,3224,3180
23870,3213,3174
23882,3188,3174
23893,3192,3184
23905,3184,3185
23917,3180,3174
23929,3164,3169
23941,3148,3158
23953,3137,3143
23964,3137,3129
23976,3134,3117
23988,3143,3096
24000,3130,3092
24012,3128,3077
24024,3131,3064
24035,3141,3055
24047,3146,3061
24059,3144,3064
24071,3142,3053
24083,3128,3070
24095,3110,3052
24106,3102,3020
24118,3087,3005
24130,3095,3009
24142,3106,3013
24154,3097,3007
24166,3089,3020
24177,3086,3028
24189,3066,3014
24201,3064,3021
24213,3063,3010
24225,3047,3011
24236,3031,3008
24248,3016,3005
24260,3000,2998
24272,3006,3004
24284,3011,2993
24296,3009,2994
24307,3013,2997
24319,3017,3003
24331,3010,3001
24343,3025,3010
24355,3034,3004
24367,3031,3002
24378,3031,2996
24390,3019,2992
24402,3009,2996
24414,3023,2992
24426,3031,3008
24438,3042,3044
24450,3083,3101
24461,3144,3170
24473,3199,3249
24485,3257,3343
24497,3335,3440
24509,3414,3555
24521,3467,3649
24532,3529,3735
24544,3564,3797
24556,3598,3835
24568,3625,3826
24580,3632,3814
24591,3638,3786
24603,3642,3743
24615,3651,3689
24627,3653,3647
24639,3642,3600
24651,3622,3567
24662,3613,3541
24674,3587,3510
24686,3553,3474
24698,3510,3446
24710,3455,3426
24722,3388,3418
24733,3316,3396
24745,3271,3370
24757,3230,3335
24769,3209,3312
24781,3203,3293
24793,3202,3268
24804,3199,3246
24816,3207,3220
24828,3205,3214
24840,3204,3226
24852,3193,3219
24864,3189,3225
24875,3184,3211
24887,3200,3227
24899,3204,3213
24911,3219,3211
24923,3223,3202
24935,3222,3181
24946,3219,3166
24958,3219,3142
24970,3214,3124
24982,3193,3111
24994,3179,3085
25006,3163,3078
25017,3146,3071
25029,3134,3069
25041,3119,3068
25053,3107,3063
25065,3093,3064
25077,3089,3066
25088,3075,3074
25100,3061,3070
25112,3039,3063
25124,3035,3059
25136,3035,3067
25148,3027,3056
25159,3035,3061
25171,3039,3053
25183,3043,3046
25195,3054,3041
25207,3053,3032
25219,3055,3033
25230,3042,3037
25242,3019,3019
25254,2996,3019
25266,3004,3022
25278,2988,3033
25290,2987,3032
25301,2972,3030
25313,2965,3029
25325,2973,3011
25337,2991,3019
25349,3025,3025
25361,3052,3037
25372,3095,3082
25384,3154,3134
25396,3213,3215
25408,3288,3312
25420,3353,3426
25432,3422,3533
25443,3492,3623
25455,3547,3714
25467,3591,3780
25479,3643,3833
25491,3676,3846
25503,3683,3840
25514,3682,3802
25526,3667,3770
25538,3653,3738
25550,3621,3673
25562,3595,3633
25574,3563,3577
25585,3526,3547
25597,3498,3515
25609,3455,3485
25621,3426,3466
25633,3403,3443
25645,3367,3423
25656,3318,3373
25668,3272,3340
25680,3251,3313
25692,3227,3284
25704,3235,3244
25716,3239,3233
25727,3232,3232
25739,3247,3218
25751,3243,3205
25763,3247,3208
25775,3244,3203
25787,3244,3199
25798,3247,3180
25810,3236,3175
25822,3213,3168
25834,3194,3157
25846,3196,3144
25858,3198,3133
25869,3193,3119
25881,3183,3110
25893,3155,3108
25905,3136,3106
25917,3112,3085
25929,3105,3082
25940,3085,3077
25952,3084,3068
25964,3064,3062
25976,3057,3060
25988,3057,3053
26000,3064,3048
26011,3070,3039
26023,3075,3051
26035,3073,3048
26047,3078,3046
26059,3077,3033
26071,3054,3028
26082,3051,3034
26094,3041,3038
26106,3045,3055
26118,3048,3056
26130,3048,3063
26142,3064,3055
26153,3055,3057
26165,3052,3051
26177,3033,3035
26189,3028,3030
26201,3028,3030
26213,3021,3018
26225,3005,3020
26236,2988,3017
26248,2970,3015
26260,2963,3000
26272,2962,3009
26284,2981,3015
26296,3001,3019
26307,3057,3085
26319,3131,3165
26331,3205,3242
26343,3278,3348
26355,3361,3461
26367,3432,3561
26378,3486,3660
26390,3534,3722
26402,3541,3783
26414,3549,3821
26426,3561,3817
26438,3543,3798
26449,3526,3768
26461,3507,3728
26473,3487,3685
26485,3488,3623
26497,3491,3577
26509,3531,3541
26520,3539,3520
26532,3536,3477
26544,3523,3450
26556,3500,3422
26568,3472,3399
26580,3440,3376
26591,3388,3356
26603,3332,3332
26615,3289,3307
26627,3260,3274
26639,3233,3262
26651,3208,3249
26662,3185,3227
26674,3183,3220
26686,3184,3216
26698,3185,3214
26710,3177,3186
26722,3152,3177
26733,3161,3165
26745,3158,3162
26757,3173,3165
26769,3174,3154
26781,3175,3131
26793,3172,3125
26804,3171,3118
26816,3154,3114
26828,3135,3110
26840,3116,3095
26852,3106,3091
26864,3115,3090
26876,3112,3078
26887,3111,3065
26899,3096,3067
26911,3099,3058
26923,3106,3053
26935,3101,3042
26947,3094,3042
26958,3082,3035
26970,3061,3040
26982,3043,3040
26994,3038,3049
27006,3033,3045
27018,3021,3049
27029,3032,3055
27041,3049,3060
27053,3051,3053
27065,3051,3052
27077,3031,3047
27089,3019,3041
27100,3033,3042
27112,3038,3036
27124,3037,3020
27136,3045,3018
27148,3056,3025
27160,3065,3019
27171,3061,3024
27183,3059,3027
27195,3059,3029
27207,3058,3058
27219,3081,3095
27231,3112,3165
27242,3170,3261
27254,3237,3359
27266,3303,3475
27278,3388,3589
27290,3497,3697
27302,3585,3783
27313,3664,3840
27325,3702,3872
27337,3736,3884
27349,3756,3870
27361,3741,3837
27373,3708,3800
27384,3687,3745
27396,3667,3686
27408,3648,3633
27420,3618,3596
27432,3584,3540
27444,3547,3520
27455,3490,3477
27467,3444,3460
27479,3394,3418
27491,3353,3390
27503,3327,3373
27515,3297,3342
27526,3294,3314
27538,3291,3290
27550,3292,3261
27562,3297,3235
27574,3304,3223
27586,3317,3216
27597,3315,3208
27609,3293,3201
27621,3260,3199
27633,3253,3194
27645,3236,3186
27657,3225,3187
27668,3212,3170
27680,3200,3151
27692,3198,3139
27704,3206,3123
27716,3200,3107
27728,3177,3092
27740,3165,3080
27751,3152,3072
27763,3123,3063
27775,3113,3062
27787,3111,3056
27799,3116,3059
27811,3110,3068
27822,3113,3061
27834,3123,3066
27846,3126,3062
27858,3130,3067
27870,3117,3066
27882,3102,3069
27893,3086,3065
27905,3081,3070
27917,3075,3073
27929,3074,3061
27941,3068,3061
27953,3060,3061
27964,3077,3071
27976,3092,3060
27988,3097,3051
28000,3100,3051
28012,3096,3050
28024,3076,3054
28035,3064,3041
28047,3074,3053
28059,3066,3041
28071,3058,3026
28083,3049,3011
28095,3044,3013
28106,3064,3021
28118,3083,3048
28130,3117,3086
28142,3163,3159
28154,3228,3254
28166,3296,3366
28177,3367,3487
28189,3445,3622
28201,3532,3742
28213,3607,3850
28225,3661,3922
28237,3696,3958
28248,3706,3969
28260,3684,3947
28272,3662,3918
28284,3638,3870
28296,3631,3806
28308,3612,3734
28319,3602,3666
28331,3591,3601
28343,3575,3557
28355,3560,3510
28367,3534,3480
28379,3505,3457
28390,3463,3420
28402,3411,3381
28414,3360,3349
28426,3311,3315
28438,3277,3288
28450,3261,3267
28461,3239,3250
28473,3226,3237
28485,3209,3225
28497,3215,3224
28509,3224,3222
28521,3235,3212
28532,3230,3214
28544,3249,3196
28556,3249,3171
28568,3264,3173
28580,3255,3151
28592,3253,3142
28603,3250,3124
28615,3235,3116
28627,3222,3118
28639,3205,3107
28651,3194,3101
28663,3190,3095
28674,3184,3085
28686,3175,3095
28698,3159,3083
28710,3150,3077
28722,3134,3081
28734,3135,3072
28746,3126,3064
28757,3101,3059
28769,3083,3053
28781,3070,3053
28793,3044,3063
28805,3012,3043
28817,3005,3039
28828,2997,3040
28840,2996,3044
28852,3019,3047
28864,3025,3046
28876,3035,3056
28888,3042,3076
28899,3049,3082
28911,3059,3081
28923,3044,3074
28935,3044,3083
28947,3037,3080
28959,3034,3087
28970,3042,3102
28982,3074,3135
28994,3115,3188
29006,3161,3251
29018,3226,3355
29030,3296,3448
29041,3377,3557
29053,3469,3647
29065,3557,3714
29077,3600,3771
29089,3630,3798
29101,3663,3799
29112,3674,3777
29124,3683,3745
29136,3677,3698
29148,3664,3665
29160,3646,3625
29172,3623,3589
29183,3588,3543
29195,3571,3525
29207,3525,3491
29219,3489,3468
29231,3448,3449
29243,3397,3427
29254,3359,3405
29266,3319,3367
29278,3287,3324
29290,3259,3293
29302,3239,3264
29314,3218,3240
29325,3207,3226
29337,3191,3208
29349,3182,3213
29361,3180,3202
29373,3183,3188
29385,3185,3173
29396,3195,3162
29408,3195,3133
29420,3201,3120
29432,3190,3102
29444,3179,3082
29456,3174,3076
29467,3167,3070
29479,3170,3067
29491,3179,3052
29503,3186,3050
29515,3181,3039
29527,3178,3040
29538,3173,3047
29550,3177,3037
29562,3166,3034
29574,3137,3030
29586,3113,3045
29598,3112,3048
29609,3111,3039
29621,3112,3046
29633,3105,3050
29645,3091,3036
29657,3094,3027
29669,3097,3015
29680,3107,3012
29692,3122,3010
29704,3118,2999
29716,3126,2997
29728,3110,2996
29740,3092,3002
29751,3088,2998
29763,3100,3011
29775,3107,3000
29787,3108,3004
29799,3109,3003
29811,3109,3008
29822,3107,3016
29834,3114,3028
29846,3115,3053
29858,3136,3098
29870,3169,3174
29882,3201,3264
29893,3261,3385
29905,3329,3493
29917,3423,3598
29929,3483,3688
29941,3533,3756
29953,3582,3795
29965,3615,3809
29976,3633,3811
29988,3631,3801
