timestamp_ms,ppg1,ppg2
0,3221,3177
12,3238,3185
24,3250,3184
36,3252,3185
48,3246,3164
59,3234,3154
71,3234,3142
83,3218,3142
95,3215,3135
107,3210,3124
118,3212,3135
130,3209,3136
142,3200,3138
154,3204,3151
166,3195,3141
178,3190,3160
189,3188,3167
201,3185,3185
213,3193,3211
225,3189,3247
237,3194,3271
249,3213,3301
260,3216,3298
272,3211,3293
284,3224,3264
296,3228,3229
308,3221,3197
319,3221,3164
331,3217,3145
343,3214,3122
355,3206,3096
367,3207,3097
379,3201,3094
390,3197,3113
402,3201,3140
414,3199,3176
426,3208,3237
438,3208,3319
449,3208,3375
461,3215,3439
473,3222,3484
485,3222,3522
497,3234,3553
509,3242,3572
520,3251,3570
532,3255,3559
544,3249,3523
556,3252,3481
568,3254,3436
579,3248,3390
591,3244,3352
603,3236,3296
615,3238,3251
627,3226,3234
639,3215,3214
650,3211,3216
662,3212,3214
674,3224,3242
686,3230,3271
698,3227,3302
709,3223,3328
721,3244,3351
733,3238,3369
745,3238,3375
757,3247,3377
769,3237,3365
780,3244,3344
792,3230,3335
804,3232,3335
816,3228,3336
828,3221,3324
839,3236,3320
851,3237,3303
863,3252,3286
875,3247,3246
887,3245,3231
899,3238,3208
910,3234,3195
922,3228,3174
934,3217,3161
946,3218,3149
958,3217,3164
969,3216,3166
981,3213,3179
993,3201,3199
1005,3198,3209
1017,3191,3217
1029,3201,3216
1040,3203,3220
1052,3205,3223
1064,3204,3208
1076,3213,3182
1088,3212,3155
1099,3214,3131
1111,3206,3127
1123,3210,3143
1135,3207,3160
1147,3199,3175
1159,3200,3188
1170,3206,3214
1182,3207,3214
1194,3219,3230
1206,3222,3232
1218,3226,3218
1230,3222,3210
1241,3218,3199
1253,3212,3192
1265,3216,3198
1277,3214,3211
1289,3207,3238
1300,3214,3257
1312,3226,3328
1324,3250,3410
1336,3279,3473
1348,3287,3514
1360,3296,3553
1371,3300,3566
1383,3301,3560
1395,3300,3549
1407,3285,3516
1419,3283,3512
1430,3281,3514
1442,3279,3542
1454,3270,3556
1466,3263,3561
1478,3261,3588
1490,3258,3569
1501,3246,3552
1513,3243,3519
1525,3238,3485
1537,3235,3424
1549,3228,3364
1561,3218,3306
1572,3228,3257
1584,3222,3228
1596,3227,3229
1608,3229,3244
1620,3227,3248
1631,3238,3267
1643,3234,3272
1655,3248,3278
1667,3235,3275
1679,3234,3265
1691,3231,3263
1702,3227,3262
1714,3223,3252
1726,3218,3243
1738,3228,3226
1750,3225,3206
1762,3215,3212
1773,3223,3211
1785,3224,3217
1797,3218,3195
1809,3214,3172
1821,3211,3128
1832,3206,3085
1844,3197,3051
1856,3205,3013
1868,3192,3014
1880,3197,3025
1892,3206,3025
1903,3215,3049
1915,3227,3076
1927,3230,3101
1939,3227,3116
1951,3225,3147
1963,3238,3165
1974,3234,3177
1986,3240,3185
1998,3238,3207
2010,3235,3222
2022,3229,3244
2034,3228,3250
2045,3219,3255
2057,3209,3257
2069,3208,3238
2081,3211,3232
2093,3227,3206
2104,3233,3186
2116,3219,3172
2128,3220,3155
2140,3214,3142
2152,3212,3152
2164,3204,3149
2175,3200,3146
2187,3203,3140
2199,3214,3146
2211,3220,3160
2223,3223,3198
2235,3233,3246
2246,3238,3296
2258,3239,3353
2270,3250,3405
2282,3246,3452
2294,3238,3476
2306,3241,3500
2317,3239,3495
2329,3229,3475
2341,3229,3451
2353,3218,3407
2365,3225,3342
2376,3222,3279
2388,3223,3221
2400,3217,3178
2412,3210,3123
2424,3214,3082
2436,3213,3044
2447,3208,3021
2459,3213,3026
2471,3206,3048
2483,3215,3093
2495,3209,3115
2507,3208,3145
2518,3213,3173
2530,3213,3207
2542,3220,3226
2554,3224,3247
2566,3216,3258
2578,3234,3273
2589,3226,3280
2601,3235,3284
2613,3246,3293
2625,3239,3289
2637,3234,3288
2648,3229,3265
2660,3230,3233
2672,3236,3195
2684,3232,3152
2696,3230,3123
2708,3220,3106
2719,3209,3081
2731,3203,3058
2743,3189,3041
2755,3196,3056
2767,3191,3069
2779,3197,3069
2790,3193,3078
2802,3190,3084
2814,3193,3093
2826,3197,3099
2838,3200,3119
2850,3202,3122
2861,3202,3129
2873,3209,3129
2885,3214,3124
2897,3221,3137
2909,3219,3131
2920,3224,3139
2932,3221,3144
2944,3215,3137
2956,3221,3147
2968,3217,3159
2980,3215,3154
2991,3226,3169
3003,3221,3171
3015,3204,3168
3027,3201,3161
3039,3198,3145
3051,3200,3131
3062,3185,3116
3074,3186,3097
3086,3188,3110
3098,3200,3148
3110,3215,3208
3122,3235,3267
3133,3244,3344
3145,3255,3401
3157,3261,3447
3169,3254,3473
3181,3262,3477
3193,3261,3468
3204,3270,3434
3216,3264,3414
3228,3256,3376
3240,3254,3347
3252,3243,3308
3263,3222,3276
3275,3223,3242
3287,3219,3207
3299,3214,3180
3311,3215,3143
3323,3210,3126
3334,3209,3106
3346,3213,3107
3358,3216,3123
3370,3206,3136
3382,3210,3162
3394,3209,3184
3405,3212,3208
3417,3213,3222
3429,3215,3248
3441,3227,3272
3453,3230,3286
3465,3230,3288
3476,3230,3301
3488,3231,3299
3500,3223,3292
3512,3220,3277
3524,3211,3259
3536,3221,3265
3547,3228,3255
3559,3220,3239
3571,3221,3219
3583,3218,3192
3595,3213,3160
3606,3213,3136
3618,3214,3112
3630,3207,3100
3642,3208,3097
3654,3207,3092
3666,3206,3102
3677,3205,3103
3689,3209,3113
3701,3210,3126
3713,3219,3150
3725,3233,3149
3737,3235,3158
3748,3237,3151
3760,3236,3146
3772,3234,3143
3784,3224,3155
3796,3226,3158
3808,3213,3165
3819,3217,3173
3831,3219,3192
3843,3220,3195
3855,3223,3190
3867,3225,3209
3879,3227,3193
3890,3227,3190
3902,3231,3195
3914,3225,3202
3926,3227,3202
3938,3230,3209
3950,3222,3191
3961,3223,3180
3973,3213,3164
3985,3210,3147
3997,3217,3134
4009,3224,3156
4020,3234,3186
4032,3244,3233
4044,3249,3305
4056,3250,3357
4068,3248,3403
4080,3245,3437
4091,3246,3466
4103,3234,3480
4115,3236,3495
4127,3237,3496
4139,3244,3489
4151,3249,3461
4162,3235,3410
4174,3245,3373
4186,3252,3333
4198,3255,3310
4210,3253,3272
4222,3268,3233
4233,3265,3200
4245,3251,3180
4257,3245,3163
4269,3243,3149
4281,3245,3140
4292,3237,3135
4304,3233,3154
4316,3226,3178
4328,3233,3199
4340,3224,3218
4352,3222,3243
4363,3231,3252
4375,3225,3250
4387,3222,3264
4399,3230,3265
4411,3222,3253
4423,3224,3251
4434,3228,3245
4446,3234,3240
4458,3240,3221
4470,3228,3209
4482,3235,3187
4494,3227,3162
4505,3206,3135
4517,3204,3116
4529,3207,3092
4541,3204,3084
4553,3211,3057
4564,3205,3048
4576,3203,3056
4588,3197,3037
4600,3196,3033
4612,3193,3041
4624,3191,3043
4635,3186,3050
4647,3196,3070
4659,3197,3092
4671,3195,3110
4683,3199,3121
4695,3204,3137
4706,3193,3142
4718,3202,3139
4730,3200,3151
4742,3196,3149
4754,3204,3149
4766,3207,3146
4777,3212,3159
4789,3214,3149
4801,3216,3141
4813,3207,3126
4825,3209,3106
4837,3206,3105
4848,3203,3092
4860,3202,3078
4872,3209,3067
4884,3218,3064
4896,3207,3063
4908,3202,3064
4919,3206,3082
4931,3204,3114
4943,3200,3164
4955,3205,3229
4967,3211,3285
4978,3222,3349
4990,3234,3401
5002,3238,3436
5014,3229,3461
5026,3228,3471
5038,3230,3478
5049,3235,3474
5061,3232,3463
5073,3238,3425
5085,3232,3390
5097,3235,3351
5109,3221,3304
5120,3230,3278
5132,3218,3244
5144,3207,3204
5156,3193,3179
5168,3188,3164
5180,3191,3146
5191,3191,3155
5203,3193,3161
5215,3192,3168
5227,3210,3190
5239,3216,3219
5251,3213,3239
5262,3219,3253
5274,3214,3267
5286,3213,3284
5298,3225,3287
5310,3230,3299
5322,3229,3299
5333,3226,3309
5345,3222,3312
5357,3222,3288
5369,3226,3297
5381,3233,3299
5392,3225,3278
5404,3226,3254
5416,3222,3215
5428,3224,3196
5440,3218,3165
5452,3212,3138
5463,3218,3133
5475,3216,3116
5487,3214,3111
5499,3207,3104
5511,3210,3103
5523,3206,3113
5534,3213,3110
5546,3208,3115
5558,3215,3120
5570,3211,3127
5582,3205,3149
5594,3214,3165
5605,3210,3174
5617,3227,3190
5629,3220,3187
5641,3227,3181
5653,3239,3188
5664,3237,3201
5676,3236,3197
5688,3238,3183
5700,3225,3189
5712,3204,3184
5724,3202,3174
5735,3196,3178
5747,3200,3180
5759,3195,3181
5771,3205,3176
5783,3207,3164
5795,3217,3159
5806,3214,3157
5818,3205,3131
5830,3215,3146
5842,3219,3172
5854,3226,3208
5866,3245,3268
5877,3254,3351
5889,3260,3421
5901,3266,3485
5913,3260,3547
5925,3259,3574
5937,3265,3601
5948,3270,3611
5960,3275,3601
5972,3260,3570
5984,3264,3545
5996,3267,3500
6008,3251,3462
6019,3249,3431
6031,3231,3381
6043,3214,3357
6055,3214,3330
6067,3207,3303
6078,3195,3271
6090,3206,3261
6102,3204,3248
6114,3196,3237
6126,3205,3231
6138,3207,3223
6149,3206,3226
6161,3210,3234
6173,3205,3245
6185,3207,3259
6197,3211,3270
6209,3212,3292
6220,3216,3308
6232,3235,3320
6244,3242,3332
6256,3237,3335
6268,3235,3333
6280,3233,3336
6291,3231,3341
6303,3232,3345
6315,3233,3344
6327,3225,3335
6339,3224,3317
6351,3223,3301
6362,3218,3265
6374,3227,3238
6386,3229,3208
6398,3229,3165
6410,3222,3146
6422,3215,3127
6433,3211,3127
6445,3213,3130
6457,3210,3126
6469,3216,3135
6481,3216,3143
6492,3224,3163
6504,3226,3158
6516,3219,3168
6528,3219,3168
6540,3218,3182
6552,3208,3188
6563,3208,3188
6575,3215,3190
6587,3219,3194
6599,3213,3195
6611,3220,3210
6623,3222,3214
6634,3217,3200
6646,3209,3207
6658,3215,3203
6670,3210,3187
6682,3211,3180
6694,3215,3172
6705,3209,3170
6717,3210,3173
6729,3210,3168
6741,3199,3173
6753,3209,3182
6764,3218,3211
6776,3234,3252
6788,3227,3311
6800,3233,3358
6812,3245,3425
6824,3234,3501
6835,3244,3577
6847,3249,3623
6859,3248,3665
6871,3248,3667
6883,3246,3652
6895,3246,3634
6906,3240,3597
6918,3231,3556
6930,3233,3514
6942,3228,3450
6954,3223,3402
6966,3218,3353
6977,3216,3296
6989,3221,3236
7001,3212,3183
7013,3219,3125
7025,3220,3090
7036,3208,3067
7048,3207,3060
7060,3190,3067
7072,3185,3100
7084,3193,3141
7096,3200,3208
7107,3203,3272
7119,3199,3326
7131,3203,3364
7143,3214,3386
7155,3228,3408
7167,3229,3419
7178,3227,3416
7190,3228,3402
7202,3240,3373
7214,3240,3344
7226,3247,3299
7238,3237,3261
7249,3236,3235
7261,3228,3188
7273,3220,3157
7285,3223,3135
7297,3221,3118
7309,3219,3108
7320,3229,3102
7332,3224,3092
7344,3220,3080
7356,3216,3072
7368,3215,3067
7380,3208,3053
7391,3209,3046
7403,3217,3052
7415,3217,3058
7427,3216,3075
7439,3209,3091
7450,3212,3117
7462,3208,3132
7474,3218,3145
7486,3226,3140
7498,3225,3150
7510,3223,3153
7521,3233,3156
7533,3227,3158
7545,3223,3157
7557,3211,3160
7569,3204,3156
7581,3207,3147
7592,3205,3129
7604,3194,3113
7616,3200,3098
7628,3205,3093
7640,3198,3087
7652,3204,3124
7663,3209,3165
7675,3211,3227
7687,3217,3292
7699,3223,3367
7711,3231,3443
7723,3238,3504
7734,3241,3562
7746,3262,3601
7758,3260,3603
7770,3264,3582
7782,3259,3540
7794,3264,3511
7805,3260,3456
7817,3258,3394
7829,3244,3327
7841,3230,3286
7853,3219,3235
7864,3215,3189
7876,3209,3162
7888,3210,3131
7900,3209,3135
7912,3214,3141
7924,3205,3156
7935,3220,3162
7947,3223,3170
7959,3217,3179
7971,3227,3199
7983,3232,3210
7995,3238,3207
8006,3240,3221
8018,3249,3266
8030,3234,3286
8042,3233,3280
8054,3239,3298
8066,3237,3296
8077,3238,3293
8089,3231,3267
8101,3229,3250
8113,3221,3243
8125,3222,3217
8136,3223,3208
8148,3219,3186
8160,3216,3166
8172,3209,3150
8184,3214,3124
8196,3212,3096
8207,3213,3070
8219,3219,3057
8231,3221,3045
8243,3222,3044
8255,3224,3060
8267,3218,3058
8278,3208,3088
8290,3208,3097
8302,3219,3102
8314,3215,3097
8326,3225,3106
8338,3231,3105
8349,3239,3114
8361,3239,3119
8373,3232,3125
8385,3236,3130
8397,3226,3139
8408,3220,3157
8420,3211,3154
8432,3203,3150
8444,3213,3151
8456,3215,3141
8468,3216,3138
8479,3226,3125
8491,3234,3123
8503,3242,3110
8515,3241,3110
8527,3243,3109
8539,3245,3144
8550,3248,3186
8562,3249,3247
8574,3258,3323
8586,3259,3389
8598,3257,3440
8610,3265,3497
8621,3262,3523
8633,3252,3533
8645,3257,3546
8657,3256,3545
8669,3247,3520
8681,3248,3479
8692,3236,3423
8704,3244,3374
8716,3244,3332
8728,3244,3289
8740,3234,3262
8751,3233,3223
8763,3237,3204
8775,3236,3180
8787,3230,3166
8799,3234,3148
8811,3240,3146
8822,3235,3134
8834,3238,3133
8846,3230,3127
8858,3230,3129
8870,3231,3135
8882,3234,3158
8893,3228,3195
8905,3232,3247
8917,3238,3285
8929,3234,3330
8941,3230,3363
8953,3246,3377
8964,3239,3361
8976,3241,3344
8988,3245,3303
9000,3244,3268
9012,3244,3253
9024,3238,3222
9035,3244,3206
9047,3246,3180
9059,3237,3158
9071,3239,3127
9083,3219,3096
9094,3215,3070
9106,3220,3063
9118,3221,3065
9130,3233,3073
9142,3242,3088
9154,3250,3116
9165,3244,3117
9177,3244,3131
9189,3235,3147
9201,3232,3147
9213,3238,3168
9225,3246,3163
9236,3250,3158
9248,3240,3170
9260,3242,3170
9272,3241,3163
9284,3245,3164
9296,3237,3165
9307,3245,3180
9319,3237,3172
9331,3233,3173
9343,3239,3167
9355,3241,3144
9367,3248,3124
9378,3235,3111
9390,3239,3099
9402,3248,3097
9414,3254,3116
9426,3246,3128
9438,3253,3173
9449,3249,3227
9461,3262,3300
9473,3265,3358
9485,3278,3419
9497,3284,3471
9509,3280,3495
9520,3283,3513
9532,3285,3517
9544,3280,3507
9556,3272,3498
9568,3271,3467
9579,3259,3416
9591,3250,3348
9603,3242,3282
9615,3241,3234
9627,3241,3187
9639,3237,3150
9650,3236,3151
9662,3236,3145
9674,3236,3142
9686,3243,3131
9698,3241,3131
9710,3235,3125
9721,3247,3133
9733,3243,3136
9745,3242,3129
9757,3242,3131
9769,3241,3146
9781,3246,3161
9792,3240,3173
9804,3240,3216
9816,3234,3227
9828,3242,3239
9840,3250,3240
9852,3257,3245
9863,3256,3239
9875,3252,3215
9887,3253,3206
9899,3257,3181
9911,3248,3151
9923,3245,3124
9934,3243,3102
9946,3233,3085
9958,3224,3071
9970,3230,3066
9982,3221,3072
9993,3217,3066
10005,3216,3079
10017,3215,3076
10029,3223,3073
10041,3224,3080
10053,3223,3081
10064,3220,3092
10076,3220,3108
10088,3221,3131
10100,3223,3146
10112,3226,3162
10124,3216,3148
10135,3211,3155
10147,3209,3155
10159,3210,3158
10171,3206,3168
10183,3208,3160
10195,3203,3151
10206,3201,3139
10218,3214,3139
10230,3213,3115
10242,3212,3116
10254,3216,3109
10266,3225,3113
10277,3217,3110
10289,3224,3140
10301,3239,3189
10313,3246,3226
10325,3260,3279
10337,3259,3327
10348,3260,3384
10360,3267,3416
10372,3273,3465
10384,3271,3482
10396,3267,3479
10407,3260,3469
10419,3256,3442
10431,3244,3411
10443,3236,3371
10455,3237,3336
10467,3240,3302
10478,3240,3267
10490,3245,3229
10502,3246,3187
10514,3230,3144
10526,3217,3112
10538,3222,3099
10549,3208,3094
10561,3211,3103
10573,3213,3104
10585,3220,3126
10597,3225,3143
10609,3237,3180
10620,3244,3213
10632,3254,3226
10644,3253,3237
10656,3259,3254
10668,3261,3275
10680,3264,3279
10691,3257,3269
10703,3258,3261
10715,3243,3238
10727,3234,3217
10739,3232,3219
10751,3231,3205
10762,3224,3187
10774,3222,3175
10786,3234,3155
10798,3227,3139
10810,3237,3134
10821,3238,3127
10833,3238,3122
10845,3239,3126
10857,3229,3125
10869,3233,3121
10881,3237,3105
10892,3238,3092
10904,3241,3092
10916,3238,3087
10928,3236,3075
10940,3233,3089
10952,3222,3104
10963,3213,3123
10975,3214,3126
10987,3210,3129
10999,3204,3146
11011,3198,3145
11023,3198,3145
11034,3215,3152
11046,3227,3149
11058,3240,3137
11070,3247,3128
11082,3250,3139
11094,3245,3129
11105,3242,3128
11117,3240,3117
11129,3234,3107
11141,3229,3101
11153,3216,3132
11165,3215,3170
11176,3225,3226
11188,3222,3288
11200,3231,3356
11212,3234,3411
11224,3256,3458
11236,3244,3481
11247,3253,3479
11259,3252,3463
11271,3268,3441
11283,3261,3415
11295,3257,3388
11307,3260,3354
11318,3260,3323
11330,3248,3279
11342,3265,3248
11354,3263,3200
11366,3256,3164
11378,3254,3136
11389,3244,3129
11401,3229,3134
11413,3212,3149
11425,3196,3161
11437,3192,3170
11448,3202,3196
11460,3200,3197
11472,3220,3201
11484,3237,3225
11496,3230,3232
11508,3240,3260
11519,3245,3282
11531,3255,3313
11543,3260,3326
11555,3265,3332
11567,3254,3308
11579,3262,3290
11590,3258,3256
11602,3250,3226
11614,3243,3184
11626,3239,3154
11638,3228,3117
11650,3222,3094
11661,3219,3080
11673,3211,3060
11685,3198,3048
11697,3204,3046
11709,3210,3047
11721,3198,3054
11732,3214,3056
11744,3212,3070
11756,3229,3094
11768,3236,3100
11780,3234,3099
11792,3226,3103
11803,3220,3118
11815,3224,3129
11827,3225,3132
11839,3221,3139
11851,3221,3146
11862,3223,3154
11874,3225,3161
11886,3215,3164
11898,3204,3161
11910,3213,3158
11922,3195,3149
11933,3190,3141
11945,3195,3140
11957,3182,3122
11969,3187,3125
11981,3188,3128
11993,3186,3121
12004,3195,3138
12016,3209,3156
12028,3206,3167
12040,3206,3197
12052,3222,3223
12064,3224,3262
12075,3239,3311
12087,3243,3355
12099,3253,3413
12111,3256,3448
12123,3256,3476
12135,3255,3499
12146,3260,3499
12158,3263,3488
12170,3268,3461
12182,3256,3423
12194,3261,3367
12206,3262,3329
12217,3258,3278
12229,3247,3231
12241,3250,3190
12253,3247,3158
12265,3242,3136
12277,3224,3123
12288,3219,3131
12300,3207,3157
12312,3203,3170
12324,3193,3183
12336,3183,3197
12348,3188,3217
12359,3185,3227
12371,3194,3241
12383,3206,3252
12395,3217,3264
12407,3222,3262
12419,3231,3270
12430,3232,3261
12442,3236,3274
12454,3238,3274
12466,3227,3255
12478,3234,3245
12490,3232,3237
12501,3234,3235
12513,3230,3209
12525,3224,3192
12537,3221,3158
12549,3218,3135
12560,3224,3127
12572,3227,3107
12584,3215,3098
12596,3215,3096
12608,3202,3095
12620,3195,3111
12631,3200,3123
12643,3195,3139
12655,3189,3155
12667,3197,3148
12679,3206,3154
12691,3203,3151
12702,3210,3158
12714,3210,3169
12726,3206,3168
12738,3207,3169
12750,3211,3167
12762,3216,3161
12773,3209,3160
12785,3212,3170
12797,3218,3178
12809,3216,3184
12821,3209,3198
12833,3208,3205
12844,3225,3214
12856,3228,3225
12868,3238,3217
12880,3234,3212
12892,3242,3221
12904,3238,3228
12915,3235,3239
12927,3237,3259
12939,3238,3290
12951,3225,3326
12963,3230,3378
12975,3228,3409
12986,3217,3445
12998,3211,3463
13010,3215,3490
13022,3217,3509
13034,3218,3514
13045,3234,3510
13057,3234,3490
13069,3240,3462
13081,3239,3418
13093,3242,3365
13105,3234,3322
13116,3234,3262
13128,3226,3229
13140,3225,3200
13152,3229,3195
13164,3232,3185
13176,3216,3205
13187,3223,3211
13199,3214,3223
13211,3212,3221
13223,3205,3208
13235,3193,3208
13247,3190,3210
13258,3185,3209
13270,3190,3217
13282,3203,3236
13294,3212,3254
13306,3221,3268
13318,3223,3282
13329,3215,3304
13341,3214,3312
13353,3214,3321
13365,3221,3318
13377,3217,3300
13389,3221,3268
13400,3221,3256
13412,3222,3223
13424,3220,3193
13436,3217,3176
13448,3220,3165
13460,3218,3161
13471,3225,3144
13483,3223,3130
13495,3220,3145
13507,3219,3132
13519,3209,3128
13531,3210,3111
13542,3215,3109
13554,3215,3097
13566,3216,3082
13578,3216,3091
13590,3219,3101
13602,3222,3106
13613,3224,3111
13625,3220,3121
13637,3224,3134
13649,3217,3146
13661,3210,3145
13673,3218,3165
13684,3218,3174
13696,3209,3175
13708,3216,3184
13720,3220,3170
13732,3222,3170
13744,3225,3157
13755,3231,3165
13767,3229,3166
13779,3220,3174
13791,3217,3174
13803,3204,3160
13814,3205,3166
13826,3208,3152
13838,3209,3150
13850,3220,3157
13862,3229,3178
13874,3242,3224
13885,3238,3262
13897,3244,3310
13909,3249,3363
13921,3251,3412
13933,3239,3440
13945,3234,3462
13956,3231,3476
13968,3231,3474
13980,3227,3470
13992,3226,3457
14004,3227,3431
14016,3225,3396
14027,3240,3366
14039,3226,3328
14051,3236,3279
14063,3242,3249
14075,3226,3205
14087,3221,3175
14098,3219,3137
14110,3214,3117
14122,3212,3123
14134,3209,3140
14146,3215,3156
14157,3213,3175
14169,3228,3203
14181,3229,3214
14193,3223,3222
14205,3224,3247
14217,3221,3258
14228,3223,3270
14240,3224,3289
14252,3229,3306
14264,3227,3300
14276,3222,3297
14288,3214,3287
14299,3218,3271
14311,3219,3242
14323,3217,3222
14335,3227,3183
14347,3222,3174
14359,3225,3158
14370,3238,3142
14382,3241,3142
14394,3250,3140
14406,3250,3139
14418,3246,3136
14430,3243,3136
14441,3243,3135
14453,3227,3124
14465,3228,3095
14477,3233,3084
14489,3223,3069
14501,3222,3078
14512,3226,3090
14524,3215,3090
14536,3225,3105
14548,3212,3122
14560,3219,3142
14572,3213,3162
14583,3228,3181
14595,3237,3208
14607,3245,3222
14619,3237,3203
14631,3244,3208
14643,3233,3190
14654,3235,3179
14666,3231,3180
14678,3226,3185
14690,3225,3184
14702,3221,3176
14714,3224,3183
14725,3225,3182
14737,3221,3173
14749,3210,3149
14761,3214,3126
14773,3221,3120
14784,3226,3127
14796,3234,3160
14808,3240,3210
14820,3242,3254
14832,3253,3316
14844,3253,3373
14856,3255,3419
14867,3271,3459
14879,3273,3477
14891,3277,3496
14903,3278,3509
14915,3261,3496
14927,3270,3504
14938,3269,3496
14950,3254,3474
14962,3245,3469
14974,3230,3429
14986,3219,3385
14997,3225,3346
15009,3208,3270
15021,3206,3220
15033,3212,3165
15045,3213,3142
15057,3221,3117
15068,3231,3110
15080,3246,3110
15092,3244,3124
15104,3249,3119
15116,3249,3114
15128,3252,3123
15139,3250,3121
15151,3244,3125
15163,3244,3117
15175,3236,3096
15187,3233,3079
15199,3240,3069
15210,3237,3065
15222,3249,3071
15234,3252,3084
15246,3246,3104
15258,3258,3122
15270,3254,3136
15281,3244,3148
15293,3246,3151
15305,3245,3149
15317,3237,3144
15329,3234,3136
15341,3228,3147
15352,3230,3157
15364,3220,3166
15376,3211,3182
15388,3204,3192
15400,3193,3180
15412,3208,3182
15423,3209,3187
15435,3223,3196
15447,3220,3196
15459,3222,3199
15471,3217,3191
15483,3225,3203
15494,3233,3207
15506,3230,3200
15518,3244,3202
15530,3250,3198
15542,3248,3208
15554,3242,3213
15565,3238,3209
15577,3232,3207
15589,3230,3199
15601,3223,3189
15613,3224,3199
15625,3227,3200
15636,3226,3210
15648,3219,3218
15660,3222,3225
15672,3229,3220
15684,3227,3205
15695,3219,3184
15707,3223,3159
15719,3215,3139
15731,3224,3116
15743,3234,3111
15755,3228,3125
15766,3234,3141
15778,3247,3191
15790,3251,3247
15802,3255,3325
15814,3266,3401
15826,3268,3448
15837,3271,3476
15849,3269,3507
15861,3261,3507
15873,3255,3504
15885,3252,3502
15897,3254,3488
15908,3261,3484
15920,3251,3474
15932,3244,3462
15944,3239,3431
15956,3239,3397
15968,3237,3359
15979,3228,3305
15991,3220,3268
16003,3214,3234
16015,3208,3213
16027,3208,3194
16039,3199,3195
16050,3203,3193
16062,3213,3194
16074,3210,3208
16086,3207,3216
16098,3205,3229
16110,3217,3248
16121,3212,3259
16133,3210,3289
16145,3203,3303
16157,3213,3314
16169,3215,3313
16181,3220,3319
16192,3223,3304
16204,3220,3283
16216,3228,3281
16228,3228,3253
16240,3227,3222
16252,3230,3192
16263,3224,3164
16275,3231,3148
16287,3227,3115
16299,3221,3099
16311,3228,3100
16323,3235,3105
16334,3231,3108
16346,3230,3106
16358,3240,3104
16370,3239,3098
16382,3253,3096
16394,3261,3103
16405,3254,3096
16417,3263,3106
16429,3262,3105
16441,3250,3091
16453,3240,3087
16465,3240,3073
16476,3223,3058
16488,3216,3065
16500,3209,3068
16512,3204,3094
16524,3205,3104
16536,3208,3131
16547,3205,3166
16559,3202,3186
16571,3200,3181
16583,3200,3168
16595,3212,3167
16607,3220,3142
16618,3222,3124
16630,3213,3094
16642,3215,3086
16654,3215,3093
16666,3208,3105
16678,3211,3105
16689,3197,3098
16701,3198,3104
16713,3204,3098
16725,3203,3105
16737,3204,3123
16749,3226,3168
16760,3233,3228
16772,3250,3301
16784,3242,3370
16796,3242,3437
16808,3246,3493
16820,3238,3518
16831,3238,3537
16843,3227,3520
16855,3233,3485
16867,3224,3440
16879,3234,3395
16891,3235,3368
16902,3245,3352
16914,3247,3317
16926,3242,3297
16938,3234,3265
16950,3236,3234
16962,3225,3194
16973,3210,3164
16985,3201,3165
16997,3203,3166
17009,3212,3169
17021,3212,3178
17033,3215,3183
17044,3224,3196
17056,3224,3209
17068,3218,3226
17080,3227,3241
17092,3240,3248
17104,3237,3259
17115,3239,3269
17127,3250,3292
17139,3249,3308
17151,3239,3315
17163,3243,3317
17175,3242,3333
17186,3242,3312
17198,3235,3308
17210,3230,3297
17222,3220,3267
17234,3222,3244
17246,3225,3243
17257,3226,3239
17269,3217,3222
17281,3217,3192
17293,3224,3181
17305,3225,3173
17317,3225,3161
17329,3227,3156
17340,3225,3152
17352,3228,3159
17364,3229,3156
17376,3220,3148
17388,3219,3161
17400,3218,3156
17411,3223,3145
17423,3210,3129
17435,3207,3123
17447,3202,3110
17459,3205,3135
17471,3210,3152
17482,3212,3165
17494,3210,3187
17506,3220,3216
17518,3221,3217
17530,3227,3216
17542,3238,3211
17553,3241,3198
17565,3242,3180
17577,3239,3182
17589,3238,3182
17601,3240,3187
17613,3230,3185
17624,3236,3185
17636,3226,3191
17648,3228,3199
17660,3228,3219
17672,3232,3258
17684,3243,3312
17695,3247,3362
17707,3251,3422
17719,3241,3468
17731,3246,3499
17743,3241,3517
17755,3250,3514
17766,3246,3495
17778,3256,3494
17790,3269,3483
17802,3267,3470
17814,3278,3455
17826,3272,3428
17837,3261,3406
17849,3249,3378
17861,3238,3336
17873,3230,3284
17885,3224,3221
17897,3218,3170
17908,3222,3143
17920,3214,3137
17932,3215,3144
17944,3219,3172
17956,3218,3183
17968,3219,3200
17979,3218,3218
17991,3223,3239
18003,3221,3240
18015,3217,3246
18027,3226,3237
18039,3222,3243
18050,3235,3266
18062,3241,3284
18074,3243,3302
18086,3250,3326
18098,3242,3323
18110,3242,3319
18121,3242,3296
18133,3229,3273
18145,3226,3245
18157,3220,3209
18169,3225,3190
18181,3230,3160
18192,3217,3144
18204,3226,3119
18216,3230,3093
18228,3230,3072
18240,3223,3038
18252,3215,3020
18263,3210,3025
18275,3221,3023
18287,3222,3038
18299,3219,3061
18311,3219,3074
18323,3214,3093
18334,3212,3103
18346,3210,3121
18358,3198,3131
18370,3205,3146
18382,3197,3152
18394,3201,3170
18405,3212,3166
18417,3219,3185
18429,3225,3187
18441,3238,3185
18453,3225,3193
18464,3234,3175
18476,3228,3162
18488,3228,3147
18500,3223,3130
18512,3220,3128
18524,3223,3140
18535,3218,3143
18547,3217,3157
18559,3208,3175
18571,3211,3213
18583,3217,3282
18595,3226,3327
18607,3236,3386
18618,3240,3451
18630,3259,3506
18642,3260,3545
18654,3274,3561
18666,3261,3575
18678,3268,3573
18689,3269,3545
18701,3261,3520
18713,3256,3490
18725,3261,3444
18737,3255,3401
18749,3270,3379
18760,3263,3345
18772,3260,3314
18784,3259,3290
18796,3266,3267
18808,3252,3234
18820,3246,3212
18831,3246,3196
18843,3247,3197
18855,3238,3209
18867,3241,3213
18879,3234,3239
18891,3233,3253
18902,3221,3263
18914,3226,3273
18926,3231,3273
18938,3229,3297
18950,3229,3311
18962,3239,3315
18973,3251,3322
18985,3266,3303
18997,3269,3289
19009,3272,3285
19021,3269,3259
19033,3250,3251
19044,3260,3238
19056,3250,3240
19068,3252,3220
19080,3243,3211
19092,3237,3187
19104,3232,3169
19115,3222,3154
19127,3221,3139
19139,3219,3127
19151,3222,3128
19163,3220,3125
19175,3224,3141
19186,3232,3153
19198,3228,3161
19210,3229,3155
19222,3226,3150
19234,3238,3144
19246,3223,3138
19257,3225,3152
19269,3219,3146
19281,3218,3151
19293,3215,3142
19305,3210,3138
19317,3214,3145
19328,3227,3151
19340,3231,3158
19352,3229,3156
19364,3240,3162
19376,3246,3164
19388,3237,3164
19399,3228,3167
19411,3224,3163
19423,3229,3172
19435,3226,3161
19447,3227,3157
19459,3228,3164
19470,3225,3172
19482,3229,3214
19494,3236,3271
19506,3248,3337
19518,3258,3397
19530,3256,3451
19541,3266,3482
19553,3267,3508
19565,3273,3530
19577,3280,3526
19589,3277,3512
19601,3268,3503
19612,3277,3495
19624,3276,3459
19636,3270,3410
19648,3269,3371
19660,3275,3334
19672,3271,3291
19683,3254,3253
19695,3262,3215
19707,3262,3177
19719,3252,3144
19731,3246,3116
19743,3243,3093
19754,3242,3092
19766,3237,3099
19778,3240,3129
19790,3239,3146
19802,3232,3164
19814,3223,3180
19825,3223,3179
19837,3228,3180
19849,3222,3176
19861,3228,3182
19873,3234,3180
19885,3240,3195
19896,3248,3206
19908,3244,3224
19920,3246,3246
19932,3242,3255
19944,3236,3241
19956,3231,3217
19967,3226,3188
19979,3228,3155
19991,3219,3121
20003,3219,3084
20015,3238,3053
20027,3234,3044
20038,3234,3040
20050,3235,3031
20062,3231,3056
20074,3239,3073
20086,3239,3084
20098,3227,3102
20109,3220,3112
20121,3229,3123
20133,3218,3135
20145,3228,3133
20157,3223,3128
20169,3235,3133
20180,3222,3145
20192,3228,3147
20204,3218,3167
20216,3206,3168
20228,3213,3179
20240,3208,3175
20251,3209,3178
20263,3214,3168
20275,3216,3151
20287,3216,3143
20299,3229,3130
20311,3230,3123
20323,3216,3126
20334,3225,3122
20346,3231,3132
20358,3222,3126
20370,3220,3124
20382,3208,3108
20394,3211,3117
20405,3220,3126
20417,3221,3155
20429,3223,3214
20441,3235,3275
20453,3236,3322
20465,3238,3373
20476,3236,3413
20488,3248,3441
20500,3259,3476
20512,3252,3480
20524,3258,3473
20536,3268,3461
20547,3266,3432
20559,3252,3397
20571,3253,3354
20583,3244,3307
20595,3246,3262
20607,3242,3205
20618,3237,3178
20630,3234,3145
20642,3244,3124
20654,3236,3109
20666,3233,3107
20678,3224,3110
20689,3215,3125
20701,3217,3140
20713,3213,3159
20725,3222,3201
20737,3219,3211
20749,3219,3229
20760,3220,3231
20772,3237,3242
20784,3255,3252
20796,3248,3270
20808,3247,3286
20820,3239,3282
20831,3242,3283
20843,3236,3276
20855,3228,3265
20867,3229,3245
20879,3221,3225
20891,3213,3193
20902,3218,3179
20914,3226,3157
20926,3233,3150
20938,3225,3127
20950,3232,3089
20962,3222,3073
20973,3231,3056
20985,3235,3046
20997,3233,3034
21009,3221,3044
21021,3227,3052
21033,3220,3076
21044,3219,3100
21056,3222,3132
21068,3228,3175
21080,3229,3193
21092,3226,3197
21104,3227,3202
21115,3214,3194
21127,3223,3173
21139,3226,3184
21151,3221,3192
21163,3222,3186
21175,3221,3190
21186,3222,3199
21198,3219,3197
21210,3224,3187
21222,3216,3170
21234,3218,3171
21246,3217,3169
21257,3224,3158
21269,3224,3148
21281,3230,3147
21293,3219,3139
21305,3225,3130
21317,3215,3128
21328,3201,3152
21340,3186,3186
21352,3188,3242
21364,3177,3299
21376,3189,3363
21388,3202,3432
21399,3218,3483
21411,3237,3524
21423,3253,3563
21435,3259,3566
21447,3253,3548
21459,3262,3509
21470,3261,3469
21482,3270,3435
21494,3254,3381
21506,3260,3340
21518,3259,3290
21530,3261,3265
21541,3257,3223
21553,3254,3204
21565,3253,3182
21577,3241,3161
21589,3246,3158
21601,3230,3151
21613,3215,3155
21624,3222,3160
21636,3205,3179
21648,3220,3199
21660,3215,3220
21672,3233,3252
21684,3241,3271
21695,3251,3287
21707,3258,3311
21719,3254,3325
21731,3248,3332
21743,3248,3347
21755,3250,3356
21766,3239,3352
21778,3248,3348
21790,3258,3342
21802,3259,3321
21814,3249,3301
21826,3247,3285
21837,3242,3265
21849,3235,3226
21861,3231,3208
21873,3215,3164
21885,3218,3141
21897,3203,3137
21908,3199,3117
21920,3197,3113
21932,3203,3117
21944,3205,3120
21956,3221,3123
21968,3214,3133
21979,3207,3167
21991,3219,3187
22003,3211,3204
22015,3217,3214
22027,3215,3206
22039,3227,3205
22050,3228,3200
22062,3232,3205
22074,3238,3198
22086,3238,3201
22098,3247,3196
22110,3237,3199
22121,3229,3197
22133,3221,3193
22145,3196,3187
22157,3203,3195
22169,3200,3195
22181,3212,3198
22192,3211,3200
22204,3235,3199
22216,3230,3190
22228,3233,3156
22240,3227,3140
22252,3227,3126
22263,3230,3103
22275,3223,3094
22287,3213,3104
22299,3224,3113
22311,3229,3150
22323,3230,3198
22334,3240,3259
22346,3252,3317
22358,3257,3404
22370,3263,3490
22382,3262,3549
22394,3259,3626
22405,3263,3678
22417,3273,3703
22429,3279,3711
22441,3280,3704
22453,3277,3676
22465,3285,3631
22476,3286,3593
22488,3286,3529
22500,3285,3467
22512,3267,3383
22524,3270,3321
22536,3246,3261
22547,3237,3203
22559,3229,3172
22571,3212,3153
22583,3201,3157
22595,3199,3183
22607,3198,3205
22618,3199,3242
22630,3209,3292
22642,3224,3326
22654,3229,3355
22666,3235,3359
22678,3252,3354
22689,3253,3325
22701,3252,3296
22713,3247,3279
22725,3246,3271
22737,3237,3265
22749,3235,3262
22760,3229,3274
22772,3229,3280
22784,3212,3278
22796,3207,3271
22808,3198,3245
22820,3189,3217
22831,3179,3184
22843,3168,3166
22855,3157,3163
22867,3161,3162
22879,3150,3152
22891,3153,3153
22902,3158,3148
22914,3151,3139
22926,3152,3124
22938,3162,3090
22950,3174,3076
22962,3187,3078
22973,3206,3081
22985,3219,3085
22997,3217,3079
23009,3214,3085
23021,3197,3077
23033,3203,3077
23044,3190,3092
23056,3198,3110
23068,3211,3117
23080,3213,3131
23092,3213,3148
23104,3206,3154
23115,3212,3157
23127,3213,3157
23139,3206,3139
23151,3192,3116
23163,3186,3108
23175,3187,3107
23186,3188,3106
23198,3196,3132
23210,3209,3131
23222,3217,3134
23234,3215,3134
23246,3222,3151
23257,3225,3151
23269,3228,3164
23281,3227,3177
23293,3218,3191
23305,3219,3233
23317,3230,3284
23328,3237,3353
23340,3244,3430
23352,3248,3504
23364,3245,3590
23376,3263,3659
23388,3264,3704
23400,3278,3745
23411,3267,3750
23423,3247,3745
23435,3231,3713
23447,3218,3661
23459,3209,3600
23471,3204,3513
23482,3206,3448
23494,3207,3389
23506,3209,3333
23518,3217,3282
23530,3214,3245
23542,3215,3223
23553,3220,3221
23565,3221,3201
23577,3223,3191
23589,3229,3179
23601,3230,3203
23613,3233,3220
23624,3233,3249
23636,3219,3277
23648,3227,3305
23660,3226,3343
23672,3237,3363
23684,3232,3379
23695,3234,3390
23707,3233,3387
23719,3253,3392
23731,3238,3372
23743,3239,3351
23755,3246,3308
23766,3244,3261
23778,3231,3217
23790,3235,3195
23802,3239,3178
23814,3242,3169
23826,3239,3187
23837,3240,3197
23849,3234,3199
23861,3221,3186
23873,3215,3178
23885,3212,3151
23897,3213,3127
23908,3218,3103
23920,3224,3102
23932,3211,3111
23944,3214,3125
23956,3229,3159
23968,3228,3154
23979,3224,3155
23991,3226,3158
24003,3232,3150
24015,3239,3172
24027,3229,3182
24039,3234,3189
24050,3240,3203
24062,3245,3215
24074,3244,3221
24086,3247,3214
24098,3239,3210
24110,3233,3199
24121,3236,3204
24133,3215,3200
24145,3208,3200
24157,3199,3204
24169,3203,3201
24181,3206,3205
24192,3211,3186
24204,3212,3173
24216,3209,3153
24228,3212,3127
24240,3223,3115
24252,3225,3113
24263,3221,3113
24275,3228,3126
24287,3239,3145
24299,3241,3148
24311,3250,3156
24323,3241,3159
24334,3247,3170
24346,3243,3214
24358,3246,3259
24370,3240,3329
24382,3242,3404
24394,3255,3471
24405,3262,3548
24417,3246,3590
24429,3245,3623
24441,3250,3653
24453,3252,3648
24465,3260,3647
24476,3265,3641
24488,3265,3603
24500,3256,3557
24512,3266,3506
24524,3248,3440
24536,3243,3374
24547,3237,3296
24559,3229,3217
24571,3215,3152
24583,3206,3108
24595,3212,3075
24607,3214,3067
24618,3212,3080
24630,3227,3099
24642,3227,3129
24654,3234,3165
24666,3233,3185
24678,3224,3230
24689,3230,3254
24701,3228,3270
24713,3229,3282
24725,3236,3281
24737,3230,3272
24749,3223,3263
24760,3220,3228
24772,3208,3195
24784,3208,3167
24796,3219,3146
24808,3225,3143
24820,3218,3144
24831,3231,3145
24843,3235,3143
24855,3222,3124
24867,3216,3095
24879,3205,3068
24891,3199,3033
24902,3192,3025
24914,3198,3027
24926,3207,3044
24938,3200,3040
24950,3201,3062
24962,3197,3064
24974,3201,3089
24985,3200,3097
24997,3191,3106
25009,3200,3115
25021,3211,3121
25033,3226,3141
25045,3239,3157
25056,3232,3168
25068,3234,3165
25080,3225,3182
25092,3222,3189
25104,3210,3183
25116,3212,3198
25127,3208,3204
25139,3204,3210
25151,3203,3203
25163,3197,3184
25175,3196,3164
25187,3200,3134
25198,3204,3092
25210,3205,3077
25222,3200,3055
25234,3185,3023
25246,3173,3014
25258,3187,3007
25269,3187,3008
25281,3194,3028
25293,3194,3036
25305,3195,3047
25317,3191,3059
25329,3197,3081
25340,3196,3090
25352,3213,3096
25364,3215,3094
25376,3218,3097
25388,3215,3122
25400,3229,3174
25411,3236,3240
25423,3229,3304
25435,3237,3385
25447,3242,3465
25459,3258,3537
25471,3257,3594
25482,3248,3621
25494,3248,3636
25506,3233,3629
25518,3222,3592
25530,3225,3559
25542,3235,3503
25553,3243,3450
25565,3241,3389
25577,3243,3344
25589,3250,3313
25601,3243,3287
25613,3247,3259
25624,3247,3235
25636,3242,3215
25648,3233,3195
25660,3221,3179
25672,3214,3165
25684,3216,3168
25696,3216,3179
25707,3222,3184
25719,3220,3204
25731,3221,3237
25743,3233,3251
25755,3241,3265
25767,3239,3280
25778,3241,3277
25790,3246,3282
25802,3246,3271
25814,3237,3261
25826,3243,3250
25838,3238,3234
25849,3233,3206
25861,3225,3193
25873,3229,3183
25885,3229,3157
25897,3225,3150
25909,3235,3162
25920,3236,3139
25932,3238,3137
25944,3231,3109
25956,3229,3105
25968,3225,3094
25980,3214,3099
25991,3215,3094
26003,3212,3086
26015,3205,3086
26027,3213,3091
26039,3228,3108
26051,3223,3133
26062,3223,3150
26074,3223,3161
26086,3220,3165
26098,3222,3152
26110,3228,3151
26122,3222,3134
26133,3230,3135
26145,3235,3129
26157,3242,3142
26169,3247,3163
26181,3240,3160
26193,3238,3144
26204,3239,3136
26216,3234,3119
26228,3226,3116
26240,3217,3105
26252,3207,3095
26264,3205,3098
26275,3209,3101
26287,3205,3113
26299,3211,3118
26311,3227,3139
26323,3222,3139
26335,3229,3140
26346,3232,3146
26358,3229,3139
26370,3233,3130
26382,3224,3125
26394,3227,3116
26406,3226,3114
26417,3215,3122
26429,3228,3169
26441,3222,3245
26453,3230,3326
26465,3247,3407
26477,3250,3497
26488,3232,3555
26500,3240,3596
26512,3248,3610
26524,3255,3613
26536,3262,3602
26548,3262,3574
26559,3254,3517
26571,3255,3469
26583,3254,3421
26595,3263,3364
26607,3267,3331
26619,3256,3277
26630,3268,3250
26642,3262,3208
26654,3264,3168
26666,3261,3134
26678,3250,3122
26690,3246,3121
26702,3232,3123
26713,3214,3127
26725,3210,3141
26737,3204,3151
26749,3210,3177
26761,3219,3198
26773,3227,3231
26784,3239,3252
26796,3260,3280
26808,3267,3302
26820,3267,3327
26832,3269,3329
26844,3262,3324
26855,3255,3315
26867,3243,3290
26879,3234,3270
26891,3252,3246
26903,3226,3214
26915,3239,3187
26926,3237,3174
26938,3236,3161
26950,3237,3145
26962,3243,3137
26974,3251,3126
26986,3246,3111
26997,3238,3097
27009,3238,3092
27021,3247,3093
27033,3257,3108
27045,3262,3122
27057,3256,3139
27068,3240,3144
27080,3237,3152
27092,3232,3140
27104,3227,3155
27116,3223,3145
27128,3219,3148
27139,3222,3140
27151,3229,3152
27163,3231,3167
27175,3228,3174
27187,3224,3165
27199,3219,3168
27210,3216,3156
27222,3219,3157
27234,3199,3134
27246,3213,3112
27258,3205,3090
27270,3205,3078
27281,3202,3091
27293,3218,3104
27305,3219,3108
27317,3223,3124
27329,3230,3137
27341,3229,3143
27352,3229,3135
27364,3232,3142
27376,3242,3160
27388,3239,3156
27400,3231,3151
27412,3228,3159
27423,3233,3177
27435,3236,3210
27447,3235,3241
27459,3238,3307
27471,3234,3374
27483,3249,3451
27494,3257,3527
27506,3272,3594
27518,3275,3632
27530,3270,3652
27542,3265,3642
27554,3275,3614
27565,3272,3559
27577,3268,3513
27589,3262,3458
27601,3261,3407
27613,3260,3371
27625,3261,3318
27637,3258,3277
27648,3253,3229
27660,3251,3173
27672,3243,3145
27684,3233,3117
27696,3227,3097
27708,3219,3085
27719,3220,3087
27731,3220,3091
27743,3234,3123
27755,3224,3146
27767,3225,3177
27779,3224,3201
27790,3222,3230
27802,3237,3274
27814,3249,3314
27826,3254,3354
27838,3256,3380
27850,3258,3405
27861,3258,3405
27873,3248,3380
27885,3239,3340
27897,3237,3297
27909,3223,3239
27921,3224,3201
27932,3220,3157
27944,3222,3138
27956,3217,3113
27968,3226,3099
27980,3232,3092
27992,3225,3076
28003,3230,3079
28015,3225,3057
28027,3217,3056
28039,3225,3047
28051,3226,3034
28063,3232,3039
28074,3232,3048
28086,3230,3050
28098,3224,3059
28110,3226,3065
28122,3225,3053
28134,3215,3066
28145,3219,3073
28157,3222,3085
28169,3221,3102
28181,3227,3117
28193,3219,3129
28205,3220,3145
28216,3219,3156
28228,3226,3160
28240,3231,3176
28252,3228,3178
28264,3218,3159
28276,3226,3169
28287,3215,3168
28299,3212,3167
28311,3225,3179
28323,3229,3185
28335,3224,3174
28347,3234,3171
28358,3223,3157
28370,3225,3159
28382,3228,3169
28394,3220,3198
28406,3223,3253
28418,3237,3327
28429,3238,3401
28441,3250,3484
28453,3257,3561
28465,3258,3626
28477,3270,3678
28489,3290,3694
28500,3297,3688
28512,3310,3670
28524,3309,3639
28536,3311,3597
28548,3306,3529
28560,3297,3465
28571,3279,3399
28583,3261,3348
28595,3267,3293
28607,3255,3264
28619,3245,3235
28631,3242,3205
28642,3250,3192
28654,3255,3188
28666,3264,3188
28678,3257,3191
28690,3248,3210
28702,3249,3225
28713,3246,3239
28725,3255,3266
28737,3255,3284
28749,3270,3311
28761,3256,3327
28773,3274,3343
28784,3272,3353
28796,3278,3376
28808,3273,3388
28820,3276,3380
28832,3278,3363
28844,3274,3339
28856,3274,3310
28867,3267,3282
28879,3274,3265
28891,3265,3223
28903,3265,3197
28915,3259,3189
28927,3247,3163
28938,3241,3161
28950,3245,3140
28962,3241,3152
28974,3244,3163
28986,3253,3179
28998,3246,3198
29009,3253,3213
29021,3258,3210
29033,3254,3208
29045,3259,3201
29057,3258,3194
29069,3249,3187
29080,3251,3183
29092,3250,3182
29104,3249,3190
29116,3246,3188
29128,3256,3189
29140,3252,3180
29151,3252,3179
29163,3263,3184
29175,3253,3183
29187,3241,3194
29199,3242,3196
29211,3235,3197
29222,3245,3195
29234,3245,3213
29246,3245,3200
29258,3249,3198
29270,3257,3185
29282,3255,3186
29293,3262,3189
29305,3270,3187
29317,3265,3209
29329,3267,3234
29341,3272,3292
29353,3271,3359
29364,3270,3431
29376,3266,3517
29388,3285,3600
29400,3294,3674
29412,3308,3750
29424,3300,3794
29435,3315,3807
29447,3314,3797
29459,3316,3772
29471,3324,3717
29483,3317,3668
29495,3316,3589
29506,3313,3527
29518,3300,3458
29530,3294,3410
29542,3296,3345
29554,3275,3294
29566,3275,3260
29577,3271,3228
29589,3274,3205
29601,3271,3190
29613,3275,3192
29625,3279,3210
29637,3288,3235
29648,3307,3260
29660,3318,3285
29672,3315,3302
29684,3312,3312
29696,3323,3313
29708,3316,3319
29719,3309,3321
29731,3309,3317
29743,3309,3318
29755,3293,3307
29767,3285,3291
29779,3279,3282
29790,3280,3270
29802,3274,3253
29814,3259,3227
29826,3252,3192
29838,3255,3164
29850,3252,3141
29861,3267,3114
29873,3276,3101
29885,3269,3072
29897,3272,3057
29909,3270,3046
29921,3273,3049
29932,3258,3054
29944,3249,3066
29956,3248,3088
29968,3241,3106
29980,3242,3133
29992,3242,3164
