timestamp_ms,ppg1,ppg2
0,3249,2916
12,3262,2963
24,3271,3025
35,3288,3073
47,3288,3135
59,3281,3196
71,3285,3254
83,3272,3298
94,3264,3336
106,3260,3355
118,3251,3361
130,3250,3371
142,3260,3343
154,3274,3323
165,3272,3294
177,3282,3253
189,3274,3211
201,3283,3171
213,3273,3137
224,3276,3104
236,3258,3067
248,3258,3036
260,3253,3020
272,3257,2995
284,3249,2995
295,3237,2987
307,3238,2988
319,3226,2971
331,3217,2965
343,3213,2966
354,3210,2985
366,3193,2997
378,3178,2997
390,3167,3004
402,3165,3014
414,3171,3037
425,3179,3040
437,3191,3043
449,3203,3067
461,3211,3075
473,3200,3073
485,3203,3073
496,3205,3083
508,3192,3100
520,3191,3089
532,3179,3094
544,3187,3097
555,3180,3094
567,3178,3105
579,3188,3102
591,3193,3100
603,3177,3111
615,3178,3106
626,3179,3132
638,3180,3169
650,3205,3243
662,3215,3339
674,3251,3477
685,3266,3620
697,3284,3752
709,3297,3896
721,3315,4007
733,3328,4057
745,3327,4084
756,3328,4078
768,3317,4028
780,3312,3938
792,3284,3835
804,3272,3698
815,3260,3561
827,3244,3445
839,3223,3324
851,3208,3209
863,3188,3128
875,3172,3042
886,3175,2976
898,3170,2940
910,3176,2918
922,3187,2916
934,3196,2930
945,3211,2963
957,3217,3010
969,3223,3067
981,3223,3133
993,3226,3201
1005,3232,3253
1016,3240,3316
1028,3239,3345
1040,3249,3366
1052,3250,3379
1064,3250,3373
1076,3242,3363
1087,3238,3331
1099,3225,3289
1111,3227,3238
1123,3225,3197
1135,3222,3157
1146,3224,3124
1158,3218,3094
1170,3218,3077
1182,3217,3056
1194,3210,3047
1206,3207,3035
1217,3199,3035
1229,3181,3017
1241,3174,3020
1253,3178,3014
1265,3172,3018
1276,3174,3015
1288,3181,3006
1300,3194,3006
1312,3199,3015
1324,3206,3035
1336,3202,3040
1347,3203,3042
1359,3195,3052
1371,3205,3059
1383,3197,3074
1395,3197,3065
1407,3203,3077
1418,3205,3074
1430,3210,3083
1442,3199,3093
1454,3210,3101
1466,3217,3104
1477,3221,3107
1489,3222,3101
1501,3218,3088
1513,3218,3084
1525,3201,3086
1537,3207,3085
1548,3218,3104
1560,3222,3154
1572,3238,3242
1584,3262,3371
1596,3286,3507
1608,3299,3682
1619,3323,3842
1631,3335,3978
1643,3355,4094
1655,3356,4095
1667,3355,4095
1678,3351,4095
1690,3336,4079
1702,3321,3986
1714,3304,3865
1726,3295,3735
1738,3287,3599
1749,3274,3465
1761,3257,3327
1773,3237,3239
1785,3222,3143
1797,3226,3076
1808,3221,3025
1820,3209,2970
1832,3211,2950
1844,3216,2945
1856,3220,2960
1868,3222,2995
1879,3237,3039
1891,3239,3084
1903,3254,3148
1915,3266,3214
1927,3269,3259
1939,3264,3310
1950,3265,3352
1962,3254,3375
1974,3261,3391
1986,3265,3380
1998,3252,3371
2009,3237,3341
2021,3240,3315
2033,3236,3268
2045,3241,3230
2057,3243,3181
2069,3240,3127
2080,3227,3087
2092,3211,3044
2104,3221,3030
2116,3210,2997
2128,3222,2986
2140,3210,2973
2151,3210,2969
2163,3216,2980
2175,3215,2978
2187,3199,2971
2199,3198,2984
2211,3184,2995
2222,3188,2992
2234,3194,3009
2246,3192,3023
2258,3203,3033
2270,3204,3043
2281,3211,3045
2293,3216,3052
2305,3219,3052
2317,3224,3060
2329,3222,3074
2341,3230,3081
2352,3222,3087
2364,3234,3076
2376,3222,3070
2388,3237,3082
2400,3232,3075
2411,3233,3071
2423,3238,3060
2435,3236,3057
2447,3248,3050
2459,3248,3041
2471,3242,3033
2482,3237,3025
2494,3248,3033
2506,3239,3045
2518,3243,3059
2530,3252,3095
2542,3260,3151
2553,3268,3262
2565,3297,3395
2577,3319,3551
2589,3336,3725
2601,3355,3890
2613,3351,4045
2624,3361,4095
2636,3365,4095
2648,3362,4095
2660,3364,4095
2672,3359,4095
2684,3348,4012
2695,3341,3876
2707,3322,3731
2719,3310,3585
2731,3298,3432
2743,3280,3300
2754,3276,3194
2766,3266,3113
2778,3267,3045
2790,3254,3002
2802,3240,2971
2814,3233,2960
2825,3228,2966
2837,3222,2976
2849,3223,3011
2861,3242,3057
2873,3246,3112
2885,3250,3160
2896,3259,3197
2908,3265,3247
2920,3280,3281
2932,3284,3318
2944,3285,3316
2956,3286,3329
2967,3289,3325
2979,3290,3313
2991,3289,3295
3003,3283,3246
3015,3278,3205
3026,3282,3177
3038,3277,3132
3050,3263,3107
3062,3255,3080
3074,3249,3049
3086,3240,3021
3097,3226,2994
3109,3223,2978
3121,3205,2966
3133,3200,2964
3145,3200,2955
3157,3190,2963
3168,3187,2977
3180,3183,2982
3192,3189,2997
3204,3183,3003
3216,3191,3018
3227,3193,3020
3239,3218,3027
3251,3215,3037
3263,3224,3046
3275,3235,3050
3287,3239,3060
3298,3244,3062
3310,3246,3074
3322,3238,3071
3334,3219,3076
3346,3212,3066
3358,3202,3072
3369,3198,3071
3381,3201,3069
3393,3191,3084
3405,3190,3086
3417,3173,3099
3428,3164,3100
3440,3166,3112
3452,3171,3117
3464,3179,3125
3476,3192,3162
3488,3213,3242
3499,3234,3354
3511,3263,3497
3523,3287,3645
3535,3313,3800
3547,3337,3941
3559,3364,4051
3570,3373,4095
3582,3367,4095
3594,3372,4095
3606,3369,4034
3618,3364,3939
3630,3356,3811
3641,3348,3685
3653,3349,3554
3665,3330,3408
3677,3317,3293
3689,3294,3182
3701,3261,3085
3712,3248,3000
3724,3228,2957
3736,3199,2906
3748,3187,2906
3760,3178,2911
3771,3175,2931
3783,3187,2957
3795,3192,3016
3807,3214,3080
3819,3234,3157
3831,3247,3226
3842,3267,3279
3854,3274,3329
3866,3285,3360
3878,3277,3382
3890,3272,3382
3902,3272,3376
3913,3264,3347
3925,3255,3309
3937,3247,3267
3949,3220,3222
3961,3213,3179
3972,3195,3134
3984,3185,3102
3996,3181,3068
4008,3175,3042
4020,3173,3028
4032,3164,3012
4043,3157,3004
4055,3161,2988
4067,3165,2982
4079,3170,2990
4091,3185,2991
4103,3193,2991
4114,3224,2998
4126,3242,3004
4138,3255,3000
4150,3260,3008
4162,3252,3019
4174,3251,3027
4185,3236,3040
4197,3224,3040
4209,3220,3058
4221,3209,3062
4233,3205,3066
4244,3193,3077
4256,3198,3074
4268,3186,3076
4280,3196,3073
4292,3191,3072
4304,3188,3068
4315,3194,3064
4327,3188,3051
4339,3191,3048
4351,3197,3038
4363,3191,3059
4375,3194,3065
4386,3218,3100
4398,3227,3171
4410,3258,3284
4422,3286,3428
4434,3326,3607
4446,3367,3769
4457,3386,3949
4469,3407,4073
4481,3410,4095
4493,3412,4095
4505,3398,4095
4516,3386,4095
4528,3350,4074
4540,3341,3974
4552,3322,3824
4564,3300,3694
4576,3277,3555
4587,3267,3414
4599,3256,3295
4611,3236,3191
4623,3227,3111
4635,3218,3033
4647,3213,2989
4658,3208,2955
4670,3201,2954
4682,3203,2972
4694,3209,3009
4706,3211,3048
4718,3206,3089
4729,3195,3159
4741,3199,3208
4753,3200,3271
4765,3198,3312
4777,3214,3363
4788,3223,3370
4800,3224,3385
4812,3232,3375
4824,3244,3364
4836,3257,3331
4848,3250,3283
4859,3251,3246
4871,3256,3198
4883,3250,3147
4895,3254,3108
4907,3242,3068
4919,3219,3043
4930,3203,3015
4942,3195,2988
4954,3188,2977
4966,3183,2975
4978,3175,2974
4990,3185,2981
5001,3193,2988
5013,3198,2984
5025,3200,3002
5037,3196,3016
5049,3202,3033
5061,3206,3034
5072,3210,3060
5084,3207,3064
5096,3217,3075
5108,3223,3085
5120,3228,3090
5132,3223,3088
5143,3232,3099
5155,3233,3091
5167,3235,3089
5179,3234,3086
5191,3225,3089
5202,3227,3088
5214,3233,3079
5226,3237,3085
5238,3236,3063
5250,3228,3064
5262,3231,3067
5273,3231,3049
5285,3230,3048
5297,3237,3038
5309,3241,3019
5321,3250,3018
5333,3244,3018
5344,3241,3014
5356,3237,3015
5368,3248,3033
5380,3253,3080
5392,3263,3158
5404,3280,3276
5415,3316,3439
5427,3335,3608
5439,3349,3804
5451,3359,3959
5463,3372,4095
5474,3372,4095
5486,3375,4095
5498,3364,4095
5510,3350,4095
5522,3341,4060
5534,3318,3951
5545,3302,3821
5557,3296,3673
5569,3291,3537
5581,3276,3410
5593,3260,3288
5605,3245,3199
5616,3240,3118
5628,3229,3059
5640,3233,3016
5652,3240,2984
5664,3251,2967
5675,3256,2984
5687,3276,2997
5699,3276,3040
5711,3283,3086
5723,3277,3135
5735,3275,3183
5746,3271,3232
5758,3263,3274
5770,3262,3300
5782,3259,3314
5794,3258,3325
5806,3261,3330
5817,3269,3299
5829,3265,3267
5841,3257,3233
5853,3249,3212
5865,3255,3171
5877,3238,3141
5888,3222,3118
5900,3213,3089
5912,3208,3051
5924,3213,3033
5936,3208,3010
5947,3190,2994
5959,3190,2999
5971,3193,2994
5983,3189,2982
5995,3194,2988
6007,3193,2991
6018,3204,2996
6030,3197,3005
6042,3206,3027
6054,3213,3036
6066,3211,3042
6078,3211,3059
6089,3216,3066
6101,3198,3071
6113,3203,3073
6125,3189,3085
6137,3180,3093
6148,3175,3105
6160,3163,3103
6172,3167,3095
6184,3155,3104
6196,3158,3109
6208,3169,3108
6219,3159,3101
6231,3165,3093
6243,3170,3089
6255,3172,3074
6267,3179,3072
6279,3181,3064
6290,3176,3057
6302,3175,3076
6314,3173,3066
6326,3172,3085
6338,3186,3142
6350,3213,3239
6361,3234,3368
6373,3256,3524
6385,3277,3678
6397,3301,3847
6409,3321,3963
6420,3330,4052
6432,3344,4095
6444,3334,4095
6456,3322,4077
6468,3316,4006
6480,3303,3893
6491,3279,3757
6503,3260,3629
6515,3244,3496
6527,3215,3371
6539,3192,3254
6551,3167,3161
6562,3158,3058
6574,3142,2992
6586,3138,2942
6598,3133,2912
6610,3151,2915
6622,3159,2927
6633,3176,2951
6645,3189,2996
6657,3207,3054
6669,3223,3112
6681,3230,3173
6692,3244,3249
6704,3249,3295
6716,3243,3325
6728,3253,3342
6740,3253,3346
6752,3246,3343
6763,3242,3320
6775,3233,3273
6787,3226,3246
6799,3227,3207
6811,3225,3163
6823,3231,3119
6834,3220,3083
6846,3207,3035
6858,3202,3017
6870,3200,3003
6882,3196,2983
6894,3186,2965
6905,3170,2965
6917,3168,2973
6929,3168,2984
6941,3176,2994
6953,3176,3007
6964,3179,3008
6976,3187,3009
6988,3192,3017
7000,3190,3020
7012,3184,3026
7024,3210,3047
7035,3205,3058
7047,3210,3050
7059,3203,3057
7071,3213,3061
7083,3210,3053
7095,3205,3066
7106,3208,3066
7118,3212,3065
7130,3204,3080
7142,3204,3069
7154,3209,3070
7166,3211,3062
7177,3205,3063
7189,3214,3066
7201,3207,3067
7213,3190,3050
7225,3185,3047
7237,3185,3046
7248,3176,3040
7260,3189,3032
7272,3169,3031
7284,3176,3051
7296,3199,3081
7307,3213,3149
7319,3233,3268
7331,3247,3403
7343,3278,3576
7355,3290,3746
7367,3309,3914
7378,3319,4054
7390,3323,4095
7402,3324,4095
7414,3326,4095
7426,3323,4095
7438,3309,4049
7449,3300,3953
7461,3294,3824
7473,3281,3691
7485,3262,3557
7497,3239,3453
7509,3223,3349
7520,3214,3258
7532,3202,3190
7544,3192,3119
7556,3204,3080
7568,3201,3043
7579,3210,3025
7591,3210,3025
7603,3216,3015
7615,3216,3046
7627,3226,3082
7639,3230,3129
7650,3249,3168
7662,3276,3215
7674,3281,3259
7686,3292,3279
7698,3298,3301
7710,3294,3306
7721,3298,3301
7733,3291,3298
7745,3293,3276
7757,3291,3244
7769,3281,3203
7781,3255,3165
7792,3266,3129
7804,3265,3096
7816,3259,3071
7828,3259,3046
7840,3251,3025
7852,3236,3007
7863,3215,2993
7875,3225,2988
7887,3226,2993
7899,3214,2994
7911,3217,2979
7922,3225,2979
7934,3228,2992
7946,3212,2987
7958,3209,3007
7970,3207,3009
7982,3211,3012
7993,3222,3037
8005,3208,3039
8017,3203,3054
8029,3203,3065
8041,3198,3071
8053,3197,3071
8064,3191,3077
8076,3195,3097
8088,3200,3089
8100,3197,3092
8112,3200,3092
8124,3213,3077
8135,3224,3063
8147,3250,3067
8159,3239,3048
8171,3241,3038
8183,3245,3025
8195,3240,3006
8206,3244,3002
8218,3240,2999
8230,3244,3002
8242,3238,2987
8254,3227,2993
8265,3212,2991
8277,3201,2994
8289,3192,3005
8301,3178,3010
8313,3174,3029
8325,3168,3094
8336,3183,3184
8348,3201,3321
8360,3221,3476
8372,3261,3659
8384,3299,3835
8396,3323,3972
8407,3346,4085
8419,3358,4095
8431,3361,4095
8443,3355,4095
8455,3348,4077
8467,3341,3972
8478,3323,3851
8490,3307,3706
8502,3277,3578
8514,3274,3440
8526,3256,3333
8538,3246,3237
8549,3228,3164
8561,3214,3079
8573,3213,3025
8585,3213,2988
8597,3214,2968
8608,3221,2978
8620,3225,2988
8632,3224,3024
8644,3218,3073
8656,3207,3118
8668,3198,3169
8679,3200,3230
8691,3209,3276
8703,3199,3326
8715,3211,3365
8727,3213,3385
8739,3210,3402
8750,3215,3393
8762,3204,3362
8774,3213,3320
8786,3210,3288
8798,3207,3240
8809,3194,3187
8821,3180,3145
8833,3166,3083
8845,3158,3037
8857,3161,3021
8869,3157,2985
8880,3166,2967
8892,3150,2958
8904,3148,2951
8916,3157,2954
8928,3162,2969
8940,3163,2970
8951,3178,2967
8963,3186,2971
8975,3190,2980
8987,3197,2998
8999,3202,3003
9011,3212,3013
9022,3220,3026
9034,3219,3032
9046,3205,3056
9058,3201,3065
9070,3190,3069
9082,3177,3075
9093,3179,3091
9105,3174,3086
9117,3174,3082
9129,3162,3077
9141,3150,3075
9152,3164,3066
9164,3163,3066
9176,3177,3069
9188,3177,3078
9200,3179,3077
9212,3171,3067
9223,3168,3060
9235,3174,3065
9247,3171,3062
9259,3167,3059
9271,3174,3052
9283,3177,3057
9294,3166,3078
9306,3180,3124
9318,3203,3205
9330,3215,3329
9342,3238,3477
9354,3262,3654
9365,3286,3818
9377,3309,3955
9389,3320,4066
9401,3329,4095
9413,3325,4095
9425,3325,4095
9436,3319,4079
9448,3315,3978
9460,3300,3860
9472,3296,3737
9484,3278,3608
9495,3264,3480
9507,3251,3356
9519,3222,3258
9531,3216,3186
9543,3207,3112
9555,3197,3060
9566,3194,3019
9578,3204,2993
9590,3209,2987
9602,3208,2997
9614,3226,3021
9626,3236,3049
9637,3252,3098
9649,3258,3135
9661,3258,3176
9673,3260,3229
9685,3266,3262
9697,3256,3296
9708,3257,3307
9720,3253,3308
9732,3243,3300
9744,3245,3280
9756,3228,3251
9768,3220,3227
9779,3218,3199
9791,3212,3161
9803,3221,3130
9815,3214,3096
9827,3207,3063
9838,3208,3035
9850,3223,3003
9862,3252,2974
9874,3283,2964
9886,3301,2947
9898,3315,2937
9909,3308,2932
9921,3295,2930
9933,3286,2938
9945,3274,2947
9957,3257,2957
9969,3248,2964
9980,3225,2993
9992,3201,3002
10004,3192,3022
10016,3182,3039
10028,3195,3056
10040,3184,3057
10051,3188,3056
10063,3186,3067
10075,3174,3071
10087,3184,3076
10099,3188,3076
10111,3191,3063
10122,3199,3068
10134,3202,3054
10146,3197,3048
10158,3191,3053
10170,3187,3052
10182,3188,3059
10193,3181,3041
10205,3182,3051
10217,3192,3052
10229,3199,3044
10241,3206,3039
10253,3189,3027
10264,3204,3014
10276,3191,3009
10288,3200,3000
10300,3193,3001
10312,3194,2994
10323,3189,2993
10335,3191,3004
10347,3192,3019
10359,3210,3052
10371,3221,3127
10383,3241,3228
10394,3264,3384
10406,3285,3557
10418,3301,3737
10430,3304,3909
10442,3312,4043
10454,3323,4095
10465,3322,4095
10477,3313,4095
10489,3312,4095
10501,3305,4095
10513,3290,3992
10525,3286,3844
10536,3271,3696
10548,3266,3555
10560,3264,3419
10572,3242,3304
10584,3242,3211
10596,3232,3135
10607,3228,3069
10619,3217,3029
10631,3207,3006
10643,3209,2991
10655,3218,2994
10667,3216,3012
10678,3221,3033
10690,3223,3083
10702,3228,3119
10714,3236,3162
10726,3238,3210
10738,3235,3258
10749,3233,3287
10761,3241,3312
10773,3254,3334
10785,3252,3353
10797,3248,3332
10809,3240,3313
10820,3241,3307
10832,3235,3267
10844,3233,3236
10856,3223,3177
10868,3213,3145
10880,3213,3110
10891,3220,3070
10903,3229,3033
10915,3226,3012
10927,3228,2987
10939,3219,2965
10951,3208,2958
10962,3206,2952
10974,3198,2956
10986,3186,2954
10998,3189,2959
11010,3186,2955
11022,3185,2968
11033,3184,2986
11045,3175,3004
11057,3175,3026
11069,3165,3015
11081,3164,3027
11093,3176,3041
11104,3201,3042
11116,3206,3049
11128,3208,3048
11140,3203,3058
11152,3218,3062
11164,3221,3077
11175,3228,3083
11187,3222,3077
11199,3213,3074
11211,3217,3087
11223,3216,3078
11234,3206,3074
11246,3214,3065
11258,3210,3064
11270,3213,3051
11282,3210,3045
11294,3214,3040
11305,3209,3049
11317,3207,3036
11329,3206,3044
11341,3199,3036
11353,3208,3027
11365,3198,3020
11376,3205,3013
11388,3207,3016
11400,3211,3011
11412,3225,3020
11424,3232,3052
11436,3246,3112
11447,3271,3226
11459,3289,3362
11471,3306,3516
11483,3314,3672
11495,3322,3823
11507,3351,3965
11518,3359,4055
11530,3362,4095
11542,3361,4095
11554,3353,4095
11566,3329,4039
11578,3319,3938
11589,3289,3816
11601,3260,3676
11613,3247,3528
11625,3230,3385
11637,3205,3259
11649,3187,3158
11660,3169,3078
11672,3162,3012
11684,3159,2964
11696,3162,2938
11708,3170,2948
11720,3174,2955
11731,3185,2976
11743,3195,3018
11755,3205,3064
11767,3208,3117
11779,3218,3165
11790,3218,3223
11802,3232,3264
11814,3232,3293
11826,3218,3320
11838,3219,3351
11850,3214,3364
11861,3200,3363
11873,3191,3348
11885,3185,3314
11897,3188,3290
11909,3181,3238
11921,3173,3197
11932,3169,3147
11944,3176,3101
11956,3182,3055
11968,3191,3043
11980,3199,3021
11992,3197,3002
12003,3204,2985
12015,3200,2977
12027,3200,2972
12039,3201,2981
12051,3204,2982
12063,3200,2980
12074,3209,2999
12086,3211,3002
12098,3212,3015
12110,3212,3026
12122,3200,3028
12134,3195,3034
12145,3193,3040
12157,3177,3040
12169,3175,3044
12181,3165,3038
12193,3173,3051
12205,3173,3067
12216,3178,3058
12228,3181,3067
12240,3176,3063
12252,3181,3057
12264,3196,3083
12276,3190,3078
12287,3196,3070
12299,3182,3065
12311,3179,3066
12323,3183,3055
12335,3184,3057
12346,3181,3047
12358,3184,3042
12370,3185,3031
12382,3184,3029
12394,3189,3010
12406,3183,3017
12417,3192,3008
12429,3188,3005
12441,3192,3001
12453,3188,3009
12465,3185,3011
12477,3189,3000
12488,3202,3019
12500,3207,3062
12512,3222,3134
12524,3245,3250
12536,3259,3390
12548,3272,3555
12559,3299,3734
12571,3311,3900
12583,3343,4038
12595,3350,4095
12607,3364,4095
12619,3373,4095
12630,3381,4095
12642,3380,4087
12654,3370,3981
12666,3350,3855
12678,3333,3709
12690,3315,3566
12701,3297,3437
12713,3273,3329
12725,3258,3227
12737,3234,3146
12749,3207,3084
12761,3199,3040
12772,3187,3008
12784,3196,2994
12796,3200,3012
12808,3199,3027
12820,3213,3057
12831,3235,3088
12843,3255,3145
12855,3266,3180
12867,3278,3223
12879,3286,3274
12891,3300,3311
12902,3294,3330
12914,3289,3349
12926,3284,3351
12938,3280,3346
12950,3268,3318
12962,3257,3310
12973,3239,3288
12985,3233,3267
12997,3211,3240
13009,3204,3195
13021,3197,3163
13033,3191,3125
13044,3189,3094
13056,3193,3063
13068,3184,3038
13080,3196,3019
13092,3192,3004
13104,3193,2983
13115,3208,2970
13127,3220,2964
13139,3226,2972
13151,3233,2962
13163,3231,2971
13175,3227,2986
13186,3222,2994
13198,3225,3010
13210,3211,3016
13222,3211,3033
13234,3211,3041
13246,3210,3051
13257,3215,3056
13269,3212,3066
13281,3226,3076
13293,3228,3076
13305,3233,3089
13317,3230,3095
13328,3234,3095
13340,3227,3105
13352,3218,3100
13364,3212,3095
13376,3202,3075
13388,3204,3086
13399,3201,3077
13411,3197,3083
13423,3187,3075
13435,3198,3084
13447,3195,3072
13459,3197,3069
13470,3193,3075
13482,3180,3060
13494,3181,3066
13506,3167,3072
13518,3158,3066
13530,3153,3071
13541,3161,3095
13553,3173,3123
13565,3193,3181
13577,3221,3260
13589,3237,3387
13601,3266,3536
13612,3300,3673
13624,3328,3825
13636,3352,3958
13648,3368,4047
13660,3368,4095
13672,3356,4095
13683,3356,4095
13695,3335,4048
13707,3319,3959
13719,3302,3836
13731,3288,3696
13743,3273,3568
13754,3260,3438
13766,3248,3328
13778,3238,3216
13790,3222,3126
13802,3212,3063
13813,3205,3011
13825,3193,2974
13837,3198,2958
13849,3201,2972
13861,3210,2998
13873,3208,3033
13884,3212,3094
13896,3210,3146
13908,3202,3204
13920,3198,3279
13932,3197,3342
13944,3205,3387
13955,3219,3432
13967,3243,3437
13979,3268,3436
13991,3280,3403
14003,3295,3362
14015,3298,3321
14026,3294,3265
14038,3308,3226
14050,3311,3184
14062,3298,3134
14074,3286,3105
14086,3279,3064
14097,3251,3027
14109,3231,3012
14121,3208,2992
14133,3176,2983
14145,3148,2989
14157,3111,2987
14168,3086,3009
14180,3065,3017
14192,3060,3036
14204,3079,3054
14216,3100,3067
14228,3123,3069
14239,3149,3084
14251,3169,3080
14263,3185,3076
14275,3215,3075
14287,3232,3081
14298,3236,3071
14310,3252,3076
14322,3264,3065
14334,3267,3071
14346,3270,3066
14358,3257,3070
14369,3247,3072
14381,3223,3067
14393,3206,3079
14405,3191,3079
14417,3180,3091
14429,3164,3090
14440,3162,3083
14452,3155,3090
14464,3151,3085
14476,3164,3079
14488,3157,3073
14500,3171,3082
14511,3174,3079
14523,3174,3086
14535,3180,3093
14547,3184,3100
14559,3199,3131
14571,3209,3199
14582,3235,3310
14594,3257,3450
14606,3284,3601
14618,3307,3775
14630,3337,3929
14642,3350,4062
14653,3366,4095
14665,3370,4095
14677,3377,4095
14689,3361,4095
14701,3353,4095
14713,3337,4002
14724,3326,3871
14736,3314,3731
14748,3292,3590
14760,3267,3466
14772,3241,3343
14784,3221,3249
14795,3216,3162
14807,3208,3081
14819,3211,3033
14831,3212,2995
14843,3229,2962
14854,3238,2966
14866,3261,2968
14878,3278,3007
14890,3305,3041
14902,3318,3093
14914,3338,3161
14925,3362,3217
14937,3366,3265
14949,3367,3306
14961,3365,3333
14973,3358,3357
14985,3329,3377
14996,3314,3383
15008,3281,3370
15020,3247,3336
15032,3211,3309
15044,3182,3269
15056,3170,3226
15067,3161,3189
15079,3154,3146
15091,3162,3117
15103,3168,3084
15115,3175,3059
15127,3189,3045
15138,3218,3017
15150,3235,3001
15162,3241,2986
15174,3255,2979
15186,3257,2978
15198,3271,2963
15209,3274,2973
15221,3282,2981
15233,3290,2990
15245,3280,2998
15257,3281,2995
15269,3265,2992
15280,3252,2998
15292,3243,3002
15304,3231,3025
15316,3205,3035
15328,3206,3038
15340,3200,3061
15351,3186,3068
15363,3184,3068
15375,3183,3074
15387,3194,3083
15399,3207,3076
15411,3230,3067
15422,3233,3067
15434,3247,3062
15446,3262,3059
15458,3274,3051
15470,3290,3059
15482,3288,3047
15493,3292,3044
15505,3300,3044
15517,3308,3047
15529,3294,3041
15541,3296,3047
15552,3287,3041
15564,3285,3049
15576,3275,3052
15588,3281,3078
15600,3285,3127
15612,3301,3220
15623,3303,3343
15635,3315,3497
15647,3351,3673
15659,3374,3827
15671,3375,3991
15683,3381,4094
15694,3388,4095
15706,3386,4095
15718,3375,4095
15730,3372,4095
15742,3362,4026
15754,3352,3903
15765,3345,3758
15777,3337,3627
15789,3327,3485
15801,3302,3367
15813,3281,3253
15825,3257,3155
15836,3255,3084
15848,3239,3028
15860,3232,2995
15872,3226,2969
15884,3228,2963
15896,3228,2985
15907,3232,3014
15919,3239,3058
15931,3234,3119
15943,3234,3178
15955,3232,3238
15967,3215,3290
15978,3214,3344
15990,3221,3383
16002,3226,3406
16014,3233,3424
16026,3240,3433
16038,3233,3400
16049,3235,3375
16061,3227,3340
16073,3223,3288
16085,3224,3240
16097,3204,3182
16109,3208,3149
16120,3194,3106
16132,3191,3077
16144,3184,3048
16156,3183,3026
16168,3178,3016
16180,3171,3006
16191,3170,2980
16203,3174,2990
16215,3172,2987
16227,3176,2986
16239,3172,2992
16251,3186,2994
16262,3195,3000
16274,3197,2995
16286,3202,3005
16298,3197,3009
16310,3199,3010
16322,3198,3017
16333,3195,3018
16345,3188,3022
16357,3186,3035
16369,3202,3054
16381,3202,3070
16393,3209,3079
16404,3196,3086
16416,3199,3083
16428,3191,3092
16440,3189,3079
16452,3188,3068
16463,3183,3063
16475,3170,3049
16487,3160,3053
16499,3177,3062
16511,3182,3074
16523,3201,3096
16534,3216,3149
16546,3226,3234
16558,3243,3358
16570,3268,3486
16582,3297,3647
16594,3327,3806
16605,3351,3944
16617,3376,4050
16629,3378,4095
16641,3379,4095
16653,3384,4091
16665,3383,4048
16676,3363,3958
16688,3343,3848
16700,3310,3731
16712,3288,3600
16724,3270,3485
16736,3257,3366
16747,3238,3269
16759,3239,3180
16771,3236,3100
16783,3221,3031
16795,3224,2990
16807,3223,2967
16818,3215,2959
16830,3225,2965
16842,3225,2994
16854,3223,3043
16866,3220,3090
16878,3230,3147
16889,3241,3200
16901,3254,3264
16913,3252,3300
16925,3270,3342
16937,3270,3355
16949,3267,3363
16960,3268,3343
16972,3266,3319
16984,3268,3298
16996,3271,3261
17008,3272,3224
17019,3265,3175
17031,3263,3122
17043,3255,3094
17055,3245,3060
17067,3233,3043
17079,3233,3017
17090,3225,3005
17102,3215,2997
17114,3223,2980
17126,3220,2983
17138,3218,2983
17150,3213,2989
17161,3211,2997
17173,3211,3008
17185,3212,3020
17197,3220,3046
17209,3215,3054
17221,3225,3069
17232,3223,3067
17244,3230,3085
17256,3231,3082
17268,3231,3080
17280,3240,3081
17292,3241,3086
17303,3241,3089
17315,3240,3083
17327,3223,3081
17339,3219,3093
17351,3203,3095
17363,3208,3092
17374,3216,3084
17386,3220,3086
17398,3218,3069
17410,3226,3069
17422,3230,3058
17434,3227,3045
17445,3221,3038
17457,3218,3039
17469,3211,3041
17481,3214,3031
17493,3205,3027
17505,3203,3030
17516,3211,3035
17528,3212,3042
17540,3224,3064
17552,3243,3088
17564,3264,3140
17576,3282,3244
17587,3303,3367
17599,3341,3524
17611,3379,3693
17623,3397,3862
17635,3422,4008
17647,3431,4095
17658,3434,4095
17670,3435,4095
17682,3438,4095
17694,3427,4095
17706,3425,4019
17718,3403,3903
17729,3382,3767
17741,3370,3637
17753,3349,3506
17765,3321,3386
17777,3316,3278
17789,3300,3202
17800,3282,3125
17812,3276,3074
17824,3267,3032
17836,3254,3001
17848,3251,3001
17860,3261,3009
17871,3266,3043
17883,3273,3085
17895,3287,3117
17907,3289,3166
17919,3290,3221
17931,3293,3255
17942,3292,3295
17954,3302,3322
17966,3301,3330
17978,3293,3320
17990,3277,3325
18001,3275,3301
18013,3270,3278
18025,3274,3246
18037,3281,3223
18049,3286,3184
18061,3285,3148
18072,3282,3105
18084,3274,3075
18096,3265,3046
18108,3255,3024
18120,3238,3005
18132,3226,2987
18143,3227,2965
18155,3223,2959
18167,3234,2967
18179,3236,2976
18191,3248,2994
18203,3249,3002
18214,3235,3019
18226,3241,3034
18238,3233,3044
18250,3214,3050
18262,3220,3059
18274,3214,3076
18285,3220,3086
18297,3218,3091
18309,3219,3096
18321,3212,3091
18333,3204,3086
18345,3197,3077
18356,3174,3074
18368,3180,3068
18380,3166,3057
18392,3162,3059
18404,3175,3059
18416,3184,3059
18427,3183,3069
18439,3191,3073
18451,3188,3075
18463,3188,3069
18475,3186,3062
18487,3186,3056
18498,3190,3064
18510,3200,3054
18522,3199,3040
18534,3213,3040
18546,3214,3037
18558,3213,3052
18569,3219,3069
18581,3226,3117
18593,3250,3212
18605,3286,3332
18617,3310,3491
18629,3341,3668
18640,3366,3824
18652,3381,3948
18664,3407,4056
18676,3413,4095
18688,3413,4095
18700,3391,4088
18711,3382,4026
18723,3358,3925
18735,3336,3817
18747,3303,3687
18759,3269,3544
18771,3236,3419
18782,3207,3305
18794,3193,3197
18806,3174,3116
18818,3164,3034
18830,3160,2984
18842,3155,2963
18853,3151,2956
18865,3166,2958
18877,3168,2983
18889,3182,3009
18901,3197,3055
18913,3210,3117
18924,3228,3172
18936,3230,3225
18948,3236,3269
18960,3235,3313
18972,3239,3340
18984,3226,3349
18995,3228,3345
19007,3214,3334
19019,3209,3307
19031,3200,3261
19043,3206,3226
19054,3196,3190
19066,3195,3151
19078,3188,3108
19090,3191,3081
19102,3184,3040
19114,3185,3020
19125,3192,3001
19137,3185,2989
19149,3175,2983
19161,3186,2987
19173,3182,2980
19185,3189,2979
19196,3194,2972
19208,3191,2970
19220,3181,2986
19232,3191,3002
19244,3197,3010
19256,3199,3026
19267,3209,3023
19279,3195,3036
19291,3206,3039
19303,3216,3045
19315,3233,3053
19327,3263,3048
19338,3306,3050
19350,3327,3036
19362,3333,3040
19374,3332,3048
19386,3320,3045
19398,3308,3055
19409,3291,3066
19421,3286,3066
19433,3261,3071
19445,3249,3063
19457,3237,3075
19469,3213,3076
19480,3208,3071
19492,3200,3064
19504,3211,3065
19516,3219,3050
19528,3215,3040
19540,3221,3040
19551,3222,3041
19563,3213,3056
19575,3221,3075
19587,3223,3122
19599,3232,3214
19611,3255,3357
19622,3277,3501
19634,3299,3682
19646,3310,3854
19658,3317,4002
19670,3326,4095
19682,3322,4095
19693,3325,4095
19705,3324,4095
19717,3323,4095
19729,3302,4037
19741,3290,3920
19753,3265,3774
19764,3255,3654
19776,3237,3514
19788,3230,3400
19800,3218,3292
19812,3228,3217
19824,3209,3133
19835,3204,3080
19847,3205,3029
19859,3209,2986
19871,3224,2977
19883,3245,2978
19895,3239,2989
19906,3261,3031
19918,3269,3080
19930,3279,3120
19942,3283,3181
19954,3298,3238
19966,3297,3276
19977,3300,3308
19989,3294,3322
20001,3288,3321
20013,3291,3312
20025,3266,3295
20037,3259,3266
20048,3249,3227
20060,3249,3184
20072,3248,3168
20084,3249,3127
20096,3244,3098
20107,3241,3071
20119,3233,3047
20131,3238,3025
20143,3231,3012
20155,3228,3013
20167,3226,2988
20178,3221,2996
20190,3210,3009
20202,3187,2996
20214,3180,2994
20226,3171,2998
20238,3177,3000
20249,3177,3017
20261,3188,3014
20273,3197,3015
20285,3200,3024
20297,3204,3028
20309,3206,3029
20320,3205,3029
20332,3205,3034
20344,3207,3043
20356,3200,3052
20368,3201,3061
20380,3217,3062
20392,3209,3059
20403,3223,3074
20415,3224,3059
20427,3234,3068
20439,3242,3060
20451,3241,3049
20463,3243,3049
20474,3245,3039
20486,3238,3044
20498,3224,3035
20510,3222,3041
20522,3221,3042
20533,3206,3043
20545,3204,3036
20557,3175,3054
20569,3161,3045
20581,3142,3037
20593,3141,3042
20604,3136,3051
20616,3142,3056
20628,3163,3069
20640,3189,3117
20652,3226,3206
20664,3247,3323
20675,3289,3472
20687,3328,3640
20699,3359,3804
20711,3393,3951
20723,3403,4057
20735,3427,4095
20746,3414,4095
20758,3416,4095
20770,3403,4091
20782,3377,4005
20794,3343,3874
20806,3313,3750
20817,3276,3612
20829,3247,3489
20841,3222,3365
20853,3189,3258
20865,3167,3173
20877,3154,3100
20888,3143,3030
20900,3142,2997
20912,3148,2969
20924,3153,2972
20936,3164,2985
20948,3166,3017
20959,3172,3051
20971,3191,3097
20983,3209,3159
20995,3214,3217
21007,3220,3274
21019,3219,3311
21030,3233,3334
21042,3221,3354
21054,3241,3363
21066,3248,3359
21078,3252,3342
21090,3237,3313
21101,3236,3269
21113,3218,3225
21125,3212,3194
21137,3198,3147
21149,3185,3111
21161,3177,3080
21172,3170,3050
21184,3169,3032
21196,3187,3004
21208,3204,2987
21220,3210,2982
21232,3208,2970
21243,3206,2972
21255,3210,2972
21267,3210,2976
21279,3208,2982
21291,3200,2983
21303,3196,3005
21314,3183,3009
21326,3177,3025
21338,3185,3045
21350,3180,3054
21362,3187,3048
21374,3177,3054
21385,3188,3078
21397,3180,3088
21409,3193,3090
21421,3192,3101
21433,3181,3098
21445,3175,3094
21456,3181,3096
21468,3188,3097
21480,3195,3099
21492,3213,3094
21504,3219,3095
21516,3222,3087
21527,3227,3091
21539,3214,3086
21551,3199,3089
21563,3196,3091
21575,3197,3083
21587,3177,3069
21598,3171,3076
21610,3165,3082
21622,3161,3089
21634,3170,3111
21646,3184,3163
21658,3212,3259
21669,3249,3396
21681,3270,3546
21693,3297,3716
21705,3322,3887
21717,3339,4033
21729,3356,4095
21740,3373,4095
21752,3360,4095
21764,3349,4095
21776,3322,4095
21788,3296,4007
21800,3288,3890
21811,3271,3767
21823,3257,3640
21835,3244,3514
21847,3229,3395
21859,3225,3288
21871,3212,3194
21882,3211,3116
21894,3223,3066
21906,3231,3031
21918,3237,2994
21930,3241,2994
21942,3253,3009
21953,3253,3037
21965,3255,3067
21977,3259,3114
21989,3272,3159
22001,3275,3220
22013,3285,3265
22024,3284,3305
22036,3270,3342
22048,3271,3356
22060,3256,3361
22072,3253,3357
22084,3249,3342
22095,3228,3316
22107,3205,3275
22119,3211,3248
22131,3192,3208
22143,3187,3178
22154,3178,3130
22166,3163,3109
22178,3182,3084
22190,3190,3056
22202,3185,3044
22214,3187,3022
22225,3196,3010
22237,3198,3006
22249,3199,3000
22261,3207,2988
22273,3212,2997
22285,3214,3002
22296,3205,3011
22308,3201,3017
22320,3194,3013
22332,3185,3031
22344,3175,3038
22356,3175,3054
22368,3164,3058
22379,3153,3068
22391,3148,3076
22403,3143,3093
22415,3151,3093
22427,3163,3092
22439,3165,3099
22450,3175,3107
22462,3185,3108
22474,3194,3085
22486,3209,3088
22498,3211,3081
22509,3207,3081
22521,3220,3081
22533,3227,3061
22545,3217,3054
22557,3206,3052
22569,3203,3043
22580,3200,3044
22592,3197,3047
22604,3179,3040
22616,3181,3050
22628,3178,3050
22640,3179,3050
22651,3173,3047
22663,3162,3040
22675,3168,3041
22687,3176,3063
22699,3188,3079
22711,3214,3131
22722,3228,3225
22734,3250,3367
22746,3279,3536
22758,3307,3721
22770,3327,3908
22782,3369,4068
22793,3384,4095
22805,3399,4095
22817,3408,4095
22829,3409,4095
22841,3393,4095
22853,3379,4095
22864,3357,4004
22876,3336,3861
22888,3326,3721
22900,3304,3583
22912,3293,3454
22924,3285,3335
22935,3275,3248
22947,3265,3176
22959,3258,3109
22971,3258,3072
22983,3250,3045
22995,3242,3033
23006,3240,3035
23018,3243,3052
23030,3249,3086
23042,3251,3112
23054,3261,3170
23066,3257,3210
23077,3260,3263
23089,3275,3292
23101,3272,3324
23113,3286,3354
23125,3296,3362
23137,3294,3356
23148,3294,3343
23160,3288,3313
23172,3288,3291
23184,3283,3255
23196,3273,3211
23208,3271,3177
23219,3272,3148
23231,3253,3107
23243,3246,3077
23255,3232,3040
23267,3238,3020
23279,3232,3008
23290,3230,2986
23302,3226,2970
23314,3223,2964
23326,3222,2975
23338,3232,2969
23350,3229,2983
23361,3236,2986
23373,3247,2990
23385,3246,3000
23397,3240,3014
23409,3238,3035
23421,3227,3042
23432,3219,3054
23444,3201,3058
23456,3199,3066
23468,3196,3063
23480,3182,3073
23492,3185,3073
23503,3175,3077
23515,3185,3086
23527,3200,3087
23539,3197,3087
23551,3212,3096
23563,3219,3085
23574,3217,3076
23586,3223,3065
23598,3237,3058
23610,3234,3050
23622,3232,3037
23634,3225,3025
23645,3222,3018
23657,3209,3004
23669,3203,3001
23681,3190,3011
23693,3181,3011
23705,3163,3025
23716,3148,3026
23728,3135,3034
23740,3132,3046
23752,3122,3062
23764,3122,3060
23776,3130,3069
23787,3124,3069
23799,3153,3069
23811,3173,3094
23823,3198,3158
23835,3232,3255
23847,3250,3385
23858,3295,3560
23870,3314,3740
23882,3331,3908
23894,3359,4063
23906,3368,4095
23918,3374,4095
23929,3374,4095
23941,3372,4095
23953,3343,4095
23965,3319,4041
23977,3305,3900
23989,3278,3750
24000,3252,3605
24012,3219,3464
24024,3190,3319
24036,3162,3205
24048,3143,3101
24060,3136,3029
24071,3133,2964
24083,3129,2916
24095,3145,2907
24107,3167,2912
24119,3183,2929
24131,3198,2973
24142,3215,3029
24154,3219,3091
24166,3227,3161
24178,3236,3233
24190,3219,3295
24202,3224,3359
24213,3234,3401
24225,3228,3409
24237,3222,3423
24249,3217,3400
24261,3204,3364
24273,3211,3331
24284,3200,3294
24296,3193,3251
24308,3177,3208
24320,3189,3164
24332,3180,3119
24344,3189,3088
24355,3184,3067
24367,3172,3044
24379,3169,3024
24391,3165,3004
24403,3165,2991
24415,3167,2982
24426,3165,2974
24438,3172,2981
24450,3186,2982
24462,3189,2993
24474,3191,2994
24485,3187,2994
24497,3175,3013
24509,3164,3018
24521,3177,3031
24533,3161,3033
24545,3170,3036
24556,3172,3040
24568,3164,3049
24580,3167,3057
24592,3167,3055
24604,3168,3052
24616,3158,3048
24627,3152,3058
24639,3159,3069
24651,3156,3077
24663,3159,3082
24675,3167,3080
24687,3160,3092
24699,3170,3086
24710,3171,3083
24722,3172,3076
24734,3165,3067
24746,3173,3070
24758,3170,3062
24770,3174,3050
24781,3183,3051
24793,3189,3047
24805,3200,3042
24817,3202,3041
24829,3199,3036
24840,3207,3041
24852,3210,3064
24864,3221,3134
24876,3228,3224
24888,3245,3352
24900,3268,3525
24911,3294,3701
24923,3323,3880
24935,3335,4038
24947,3357,4095
24959,3360,4095
24971,3370,4095
24982,3359,4095
24994,3360,4095
25006,3336,4043
25018,3320,3914
25030,3286,3789
25042,3246,3638
25053,3229,3510
25065,3214,3380
25077,3198,3264
25089,3192,3165
25101,3199,3073
25113,3206,3021
25124,3216,2993
25136,3227,2971
25148,3226,2972
25160,3225,2979
25172,3236,2996
25184,3248,3043
25195,3251,3088
25207,3253,3140
25219,3257,3183
25231,3258,3242
25243,3251,3289
25255,3250,3333
25266,3244,3363
25278,3251,3369
25290,3249,3373
25302,3247,3360
25314,3241,3345
25326,3248,3317
25337,3249,3276
25349,3251,3236
25361,3238,3200
25373,3243,3163
25385,3229,3128
25397,3234,3100
25408,3241,3074
25420,3236,3051
25432,3231,3027
25444,3225,2999
25456,3220,2998
25468,3223,2989
25479,3222,2970
25491,3222,2970
25503,3222,2954
25515,3212,2950
25527,3214,2960
25539,3211,2957
25550,3207,2965
25562,3214,2979
25574,3221,2987
25586,3225,3009
25598,3219,3017
25610,3209,3033
25621,3214,3050
25633,3210,3065
25645,3224,3067
25657,3219,3064
25669,3223,3063
25681,3223,3066
25692,3230,3067
25704,3238,3066
25716,3237,3063
25728,3228,3060
25740,3225,3064
25752,3224,3075
25763,3223,3067
25775,3215,3060
25787,3201,3060
25799,3197,3053
25811,3190,3045
25823,3192,3035
25834,3186,3030
25846,3174,3032
25858,3172,3036
25870,3164,3039
25882,3165,3034
25894,3167,3034
25905,3171,3030
25917,3185,3036
25929,3206,3045
25941,3216,3096
25953,3243,3194
25965,3281,3321
25976,3312,3489
25988,3344,3662
26000,3367,3835
26012,3395,3987
26024,3404,4095
26036,3409,4095
26047,3407,4095
26059,3409,4095
26071,3386,4095
26083,3367,4034
26095,3345,3905
26107,3310,3757
26119,3291,3613
26130,3268,3467
26142,3262,3344
26154,3245,3231
26166,3239,3147
26178,3221,3075
26190,3210,3012
26201,3208,2985
26213,3197,2955
26225,3203,2953
26237,3209,2964
26249,3211,2990
26261,3207,3026
26272,3223,3075
26284,3226,3128
26296,3239,3190
26308,3244,3243
26320,3234,3293
26332,3245,3337
26343,3242,3365
26355,3239,3382
26367,3238,3391
26379,3234,3384
26391,3222,3368
26403,3211,3331
26414,3210,3299
26426,3212,3263
26438,3202,3220
26450,3205,3186
26462,3197,3143
26474,3201,3103
26485,3188,3068
26497,3173,3041
26509,3166,3026
26521,3163,3005
26533,3164,2986
26545,3157,2986
26556,3155,2992
26568,3158,2986
26580,3158,2992
26592,3167,2986
26604,3170,2991
26616,3160,2999
26627,3160,3011
26639,3178,3020
26651,3186,3017
26663,3188,3033
26675,3180,3034
26687,3177,3044
26698,3185,3061
26710,3184,3072
26722,3184,3076
26734,3193,3087
26746,3193,3091
26758,3199,3091
26769,3201,3095
26781,3204,3095
26793,3196,3081
26805,3191,3092
26817,3182,3089
26829,3166,3086
26840,3172,3093
26852,3166,3082
26864,3170,3078
26876,3163,3055
26888,3166,3034
26900,3155,3038
26911,3168,3040
26923,3173,3032
26935,3175,3040
26947,3184,3041
26959,3193,3054
26971,3215,3098
26982,3240,3176
26994,3252,3286
27006,3271,3439
27018,3288,3593
27030,3298,3769
27042,3326,3931
27054,3347,4046
27065,3356,4095
27077,3358,4095
27089,3354,4095
27101,3352,4095
27113,3357,4086
27125,3330,3980
27136,3311,3844
27148,3284,3693
27160,3261,3545
27172,3247,3422
27184,3223,3308
27196,3205,3205
27207,3200,3115
27219,3202,3057
27231,3191,3008
27243,3194,2978
27255,3199,2971
27267,3210,2977
27278,3222,2999
27290,3236,3039
27302,3240,3078
27314,3242,3134
27326,3243,3187
27338,3247,3225
27349,3257,3288
27361,3265,3332
27373,3268,3368
27385,3263,3378
27397,3258,3387
27409,3263,3381
27420,3257,3366
27432,3241,3335
27444,3235,3290
27456,3230,3262
27468,3221,3217
27480,3219,3167
27491,3218,3134
27503,3216,3096
27515,3219,3071
27527,3222,3040
27539,3218,3016
27551,3221,3016
27563,3206,3002
27574,3199,2994
27586,3209,2993
27598,3200,2995
27610,3194,3009
27622,3200,3014
27634,3190,3020
27645,3197,3027
27657,3185,3038
27669,3178,3032
27681,3184,3037
27693,3198,3052
27705,3209,3065
27716,3218,3076
27728,3213,3078
27740,3223,3074
27752,3223,3078
27764,3230,3095
27776,3222,3085
27787,3223,3092
27799,3211,3081
27811,3214,3087
27823,3209,3082
27835,3197,3073
27847,3200,3072
27858,3197,3079
27870,3191,3074
27882,3184,3072
27894,3188,3071
27906,3182,3062
27918,3193,3069
27929,3197,3071
27941,3205,3059
27953,3218,3070
27965,3209,3070
27977,3202,3056
27989,3225,3061
28000,3230,3061
28012,3245,3077
28024,3274,3144
28036,3299,3242
28048,3321,3387
28060,3352,3553
28071,3381,3726
28083,3403,3893
28095,3423,4038
28107,3434,4095
28119,3445,4095
28131,3441,4095
28143,3435,4095
28154,3424,4095
28166,3409,4048
28178,3397,3912
28190,3380,3772
28202,3365,3636
28214,3348,3486
28225,3312,3367
28237,3289,3261
28249,3275,3165
28261,3264,3101
28273,3256,3029
28284,3256,2989
28296,3233,2954
28308,3239,2952
28320,3236,2970
28332,3245,3004
28344,3253,3030
28355,3252,3084
28367,3269,3148
28379,3277,3201
28391,3288,3245
28403,3301,3296
28415,3305,3341
28427,3309,3356
28438,3304,3383
28450,3299,3378
28462,3293,3358
28474,3295,3333
28486,3289,3279
28498,3279,3239
28509,3270,3187
28521,3267,3159
28533,3258,3113
28545,3240,3063
28557,3227,3025
28569,3225,2998
28580,3213,2974
28592,3203,2963
28604,3199,2965
28616,3204,2970
28628,3200,2970
28640,3207,2975
28651,3217,2978
28663,3219,2997
28675,3218,3003
28687,3220,3018
28699,3217,3016
28711,3214,3024
28722,3204,3035
28734,3207,3037
28746,3212,3039
28758,3210,3044
28770,3219,3053
28782,3213,3056
28794,3225,3056
28805,3220,3075
28817,3223,3087
28829,3223,3097
28841,3210,3090
28853,3199,3095
28865,3199,3093
28876,3192,3090
28888,3186,3093
28900,3175,3091
28912,3171,3079
28924,3157,3069
28936,3158,3077
28947,3148,3075
28959,3150,3065
28971,3158,3074
28983,3160,3061
28995,3147,3061
29006,3155,3059
29018,3159,3055
29030,3157,3046
29042,3168,3087
29054,3185,3134
29066,3210,3235
29077,3241,3372
29089,3268,3523
29101,3299,3697
29113,3313,3865
29125,3332,4002
29137,3346,4095
29148,3353,4095
29160,3334,4095
29172,3330,4095
29184,3304,4078
29196,3298,3991
29208,3277,3845
29220,3248,3712
29231,3220,3563
29243,3215,3428
29255,3204,3300
29267,3188,3178
29279,3180,3079
29291,3176,3013
29302,3167,2950
29314,3167,2917
29326,3159,2899
29338,3160,2902
29350,3166,2913
29362,3179,2962
29373,3189,3015
29385,3204,3079
29397,3213,3136
29409,3231,3218
29421,3235,3278
29432,3235,3317
29444,3238,3360
29456,3231,3388
29468,3233,3380
29480,3233,3369
29492,3231,3351
29504,3231,3314
29515,3227,3269
29527,3226,3222
29539,3222,3179
29551,3221,3125
29563,3222,3089
29575,3209,3059
29586,3220,3035
29598,3203,3010
29610,3193,2990
29622,3180,2992
29634,3173,2984
29646,3163,2981
29657,3162,2976
29669,3168,2972
29681,3169,2975
29693,3185,2985
29705,3182,2997
29717,3178,3001
29728,3170,3025
29740,3169,3032
29752,3168,3046
29764,3179,3041
29776,3190,3037
29787,3199,3047
29799,3203,3061
29811,3198,3066
29823,3191,3065
29835,3183,3095
29847,3176,3085
29858,3171,3094
29870,3172,3094
29882,3169,3097
29894,3169,3098
29906,3161,3107
29918,3168,3106
29930,3181,3103
29941,3189,3101
29953,3184,3093
29965,3187,3086
29977,3186,3089
29989,3188,3069
